0.0,-0.09140624127376148,-0.17724241525165824,-0.1969104536946205,-0.24584871825063728,-0.26133606050371594,-0.21494214874583745,-0.2323128598983161
-0.03046874709125383,-0.02861205799263225,-0.02686851087515665,0.03570628303249851,0.033530431617926654,-0.12085656431999686,-0.17442936231733686,-0.22473756824837327
0.03046874709125383,0.12001829926639374,0.1127046848530534,0.04489924959297144,0.011694454740846953,-0.049955670209398666,-0.10784899102913781,-0.2536206792219795
-0.15234373545626914,-0.2954040254194304,-0.3078715914301984,-0.3500481623009689,-0.4505920928121715,-0.5145403810515073,-0.4831855795745158,-0.45374146113012215
-0.06093749418250766,-0.14863035725902599,-0.26144818409322534,-0.39785992235228634,-0.4345528298309986,-0.4385410163824337,-0.5032236670215997,-0.6553709602874938
-0.03046874709125383,-0.08954955217513991,-0.2364363623166903,-0.37437225831975285,-0.41249644518880824,-0.4482974396423177,-0.4209793170220809,-0.4257946394313456
-0.03046874709125383,-0.12001829926639374,-0.14317343194430723,-0.13444880176811136,-0.27859956414879106,-0.5053723815592556,-0.6878574846367652,-0.7678161615333332
-0.09140624127376148,-0.20771116234291206,-0.31692875296101425,-0.3280846560124368,-0.24715450501280123,-0.2625622758926569,-0.27703113582415595,-0.22968080550524414
0.03046874709125383,-0.0018566890986215778,-0.12361853548249091,-0.1465542787869303,-0.04621738700216865,0.017536478931914366,0.046936596940272995,0.013607651246024574
-0.03046874709125383,-0.05908080508388608,-0.1468868101415504,-0.22934213727682404,-0.2458353492119675,-0.2917922532320161,-0.3044799115894431,-0.4078006571132863
0.0,-0.12187498836501531,-0.35819820870055963,-0.45824549580669993,-0.43032116357181877,-0.4650359643525588,-0.4976353321626755,-0.5282481761865099
0.0,-0.06093749418250766,-0.11816161016777216,-0.1414298848268316,-0.16328024913421765,-0.21426785408499052,-0.32308589633820334,-0.3338665985008976
-0.03046874709125383,-0.05908080508388608,-0.0554805688677889,-0.14350596329892729,-0.22616731076900523,-0.3342602299497609,-0.4967037316792766,-0.4969045980108947
0.03046874709125383,0.05908080508388608,-0.005456925314718759,-0.06606188814260636,-0.09250498930948464,-0.14780546124409263,-0.19973606099189553,-0.24850214011967256
0.0,-0.06093749418250766,-0.11816161016777216,-0.1414298848268316,-0.2242177433167253,-0.27149197007025505,-0.2244791826322475,-0.24126873083775466
0.09140624127376148,0.20771116234291206,0.22552251168725276,0.18131098785203245,0.13979360349332068,0.1617436786849485,0.24329366547978853,0.1979992120637191
0.0,-0.03046874709125383,-0.12001829926639374,-0.23457967321806872,-0.31169121701976954,-0.3536350294783962,-0.3930228911093331,-0.3995418080600196
-0.03046874709125383,-0.08954955217513991,-0.08409262686042115,-0.018030738717814798,-0.10833823195585313,-0.31501760121507694,-0.4786337005211686,-0.6627481918188846
-0.03046874709125383,-0.12001829926639374,-0.17364217903556106,-0.22399835394325127,-0.3017546968267045,-0.37477276301804435,-0.3519350499518699,-0.20861402152779196
-0.12187498836501531,-0.38866695579181343,-0.6392012892556013,-0.8439999411401673,-1.1581936647319475,-1.6055849455764424,-2.056182069938425,-2.6926021642947213
0.06093749418250766,0.20956785144153364,0.288203552987236,0.27064115065369826,0.132273968745176,-0.05859895800325335,-0.14643432561459058,-0.2289172260230935
-0.15234373545626914,-0.47821650796695336,-0.7537626632072763,-0.9211114849418681,-1.0173249946430512,-1.046737999974032,-1.1657648917375276,-1.308007330067877
-0.03046874709125383,-0.21142454054015522,-0.4422908355609808,-0.5372137287070223,-0.5349460173304287,-0.5328164946026538,-0.561285486744968,-0.5880196498442282
-0.09140624127376148,-0.1467736681604044,-0.16829839570198826,-0.21898020737548063,-0.14469860807994528,-0.014006049126841336,-0.013152555589654523,-0.01235107180992484
-0.09140624127376148,-0.20771116234291206,-0.2559912587785066,-0.39273552839218767,-0.5211469448717938,-0.6112645443154525,-0.9091718327060485,-1.6154878567209696
-0.2132812296387768,-0.5354406239522178,-0.6246872024100666,-0.5866203296473161,-0.6422793979958535,-0.8164217305557134,-0.9799522657382785,-1.0421114186107323
-0.06093749418250766,-0.24003659853278747,-0.3472843580711221,-0.29565297243023336,-0.2776366211427249,-0.2911868882482428,-0.18203644766583146,0.011868879852332481
-0.03046874709125383,-0.12001829926639374,-0.23457967321806872,-0.28122246992851574,-0.2945542243945102,-0.30707357515029043,-0.3188300280422216,-0.45174506051945906
0.0,-0.06093749418250766,-0.14863035725902599,-0.1700419428194639,-0.19014876000937433,-0.33090530650876115,-0.5240219959571993,-0.5530269028095591
-0.03046874709125383,-0.15048704635764756,-0.35459797248446245,-0.48533339605533066,-0.4862271421478861,-0.608941413958141,-0.7851152797263556,-0.9200848044829558
0.03046874709125383,-0.0018566890986215778,-0.09314978839123708,-0.2702859562505672,-0.4670966370027116,-0.49957043258519757,-0.6214715977120534,-0.5531319287506276
-0.09140624127376148,-0.2381799094341659,-0.3760095580449003,-0.4749714661539872,-0.4764966422896253,-0.5083976251046245,-0.5992921361474259,-0.7151165105435888
-0.03046874709125383,-0.02861205799263225,-0.02686851087515665,-0.0861687053325168,-0.08091780035260233,-0.10645561945560814,-0.16090597494684442,-0.0901632738520827
-0.03046874709125383,-0.1809557934489014,-0.4441475246596024,-0.5694260229157518,-0.5956641221394623,-0.6812408315268754,-0.7311339635925812,-0.8084554803045398
-0.03046874709125383,-0.02861205799263225,0.06453773039860483,0.09107370991914143,-0.005882335022997134,-0.09693012154051517,-0.09102344282303027,-0.08547670230553003
-0.2742187238212844,-0.6231334870287362,-0.7070362821530122,-0.6334825157312372,-0.5644109315228908,-0.499548396575417,-0.37770092779146003,-0.5070285151577094
-0.03046874709125383,-0.12001829926639374,-0.1127046848530534,-0.01443050250171761,-0.0744886380219762,-0.19182447544086442,-0.18013517258462416,-0.1691581865531836
-0.09140624127376148,-0.2381799094341659,-0.34554081095364647,-0.4158906610701011,-0.481953567604344,-0.6353970074297385,-0.7185524943509213,-0.7357032000890933
-0.03046874709125383,-0.12001829926639374,-0.2041109261268149,-0.2526104119358835,-0.35909195479311506,-0.5200222734344473,-0.5797396604460228,-0.7881617549902549
-0.06093749418250766,-0.11816161016777216,-0.17189863191808546,-0.19189230712684993,-0.21066761786889335,-0.25876755531307255,-0.2734676560078143,-0.25680322231073416
-0.03046874709125383,-0.05908080508388608,0.005456925314718759,0.0051243939600987,-0.05612536794954135,0.00823226551588259,0.007730611883899632,-0.023209219324056556
-0.03046874709125383,-0.15048704635764756,-0.2022542370281933,-0.12899187645339258,-0.09066268764116939,-0.14607542482297275,-0.16764270156386935,-0.18789572250383502
0.03046874709125383,-0.06279418328112923,-0.24178014565026307,-0.3489216577962696,-0.4495342346691738,-0.4830782390416906,-0.3012969262041224,-0.16106165815133594
-0.03046874709125383,-0.02861205799263225,-0.05733725796641048,-0.11478076332514905,-0.19919255250152046,-0.33939799294852935,-0.410122171001435,-0.5374740890481867
0.03046874709125383,-0.0018566890986215778,-0.12361853548249091,-0.17702302587818414,-0.19670443335981622,-0.18471775809627894,-0.2039302678781349,-0.19150326836567383
-0.09140624127376148,-0.20771116234291206,-0.2559912587785066,-0.17945429875341087,-0.07711256219333743,-0.1333510100657903,-0.27756866912194383,-0.38252931832709425
0.12187498836501531,0.2058544732442905,0.07143522911350803,-0.024324096018783964,-0.14471683492415988,-0.22730439491161944,-0.27439052885154186,-0.3186073517784235
0.0,-0.09140624127376148,-0.17724241525165824,-0.10550421242085903,-0.03813755590772522,-0.0967510429989708,-0.18226151815283095,-0.2625611992244593
-0.03046874709125383,-0.12001829926639374,-0.23457967321806872,-0.28122246992851574,-0.05080424766447958,0.3788540951595749,0.721392641034815,0.9516515049897366
-0.03046874709125383,-0.1809557934489014,-0.3527412833858409,-0.5140585960291089,-0.635076888780386,-0.7487206300211553,-1.0382516889887097,-1.736701910012327
0.18281248254752297,0.5068285659595856,0.8110999211736867,1.066360995358271,1.1841921109546962,1.1729679052649304,1.0710214332703265,0.9752873238198211
0.03046874709125383,-0.0018566890986215778,-0.06268104129998325,-0.11979890989291966,-0.17343615870075677,-0.22380488797140058,-0.21016677891262653,-0.10595350077152049
0.0,0.06093749418250766,0.11816161016777216,0.1414298848268316,0.10234275495171,-0.11717498572155845,-0.23190962407583085,-0.18730888561658854
-0.09140624127376148,-0.17724241525165824,-0.10550421242085903,-0.16001254427274053,-0.27213676915200746,-0.28602218345621444,-0.3295302024982909,-0.2789807106093369
-0.03046874709125383,-0.15048704635764756,-0.32412922539320865,-0.4567213380626984,-0.42888988418147556,-0.31134816808546895,-0.2619066438127724,-0.27641545632032527
0.0,-0.03046874709125383,-0.12001829926639374,-0.2650484203093225,-0.4317095162861633,-0.6491521968789726,-0.7314694770231135,-0.6868955600223355
-0.06093749418250766,-0.17909910435027981,-0.2900602420858576,-0.33332219195368157,-0.3434791199118572,-0.26161086885790785,-0.09332522260252915,0.034236770971909025
-0.15234373545626914,-0.23446653123692274,-0.15924123417117234,-0.14953747239025117,-0.07948753935389569,0.01676247338682567,0.0766785044448392,-0.04986907983870689
-0.03046874709125383,-0.08954955217513991,-0.20596761522543647,-0.34576020032712057,-0.3856279343136516,-0.30119124012729337,-0.28283740068421415,-0.3265394924079319
-0.06093749418250766,-0.14863035725902599,-0.23097943700197154,-0.216904128903385,-0.17321778771891924,-0.19313107687874456,-0.24229964718749228,-0.37987824930284997
-0.06093749418250766,-0.14863035725902599,-0.20051068991071772,-0.31016705927576804,-0.4436099913618145,-0.5079837513676632,-0.5074972415651415,-0.5375091255421347
-0.06093749418250766,-0.14863035725902599,-0.20051068991071772,-0.2492295650932604,-0.3559171282852962,-0.5170409128984791,-0.576939976550371,-0.6027201942681844
-0.06093749418250766,-0.11816161016777216,-0.08049239064432397,-0.13652488024020698,-0.2196116374185633,-0.26716654872346624,-0.4032298241711385,-0.6528767329277807
-0.03046874709125383,-0.12001829926639374,-0.2650484203093225,-0.4012407691949094,-0.4681964034300712,-0.4396656878197802,-0.38240481543476024,-0.38957077131009543
-0.03046874709125383,-0.12001829926639374,-0.2041109261268149,-0.2526104119358835,-0.23721696642809972,-0.1618240647338876,-0.12149416463932275,-0.17502810887091302
-0.12187498836501531,-0.2667919674267981,-0.25053433346378784,-0.17432990479331217,-0.13323793014287877,-0.3079312270974307,-0.5024478993763454,-0.4718299834310862
-0.12187498836501531,-0.2667919674267981,-0.22006558637253398,-0.11524909970942607,-0.1386948554575975,-0.2521181268750217,-0.35862966835028565,-0.45865066338653077
-0.09140624127376148,-0.20771116234291206,-0.31692875296101425,-0.38902215019494446,-0.3957848622718272,-0.43260421871212074,-0.40624240165102266,-0.32054951348121785
0.0,0.0,-0.12187498836501531,-0.2667919674267981,-0.28100308055504164,-0.29434820405970585,-0.4287550975434551,-0.7682528013762262
0.0,-0.03046874709125383,-0.02861205799263225,-0.08780600505766431,-0.2652678096827966,-0.40144678952971374,-0.49885861649317575,-0.5598656637264905
-0.09140624127376148,-0.2381799094341659,-0.22366582258863116,-0.11862994655204917,-0.019994693600400987,0.04216122710706213,0.07006077466675198,0.12672894080058245
-0.06093749418250766,-0.11816161016777216,-0.1109611377355778,-0.1346681911415854,-0.2178680903010877,-0.23506050190706493,-0.06839276848329667,0.1490561450870566
-0.03046874709125383,-0.08954955217513991,-0.11456137395167498,-0.10758029089295469,-0.07055587045125895,-0.03578762541483976,0.027330676983190458,-0.0657410272602382
-0.03046874709125383,-0.12001829926639374,-0.17364217903556106,-0.19352960685199744,-0.2731426388340723,-0.31743550505163387,-0.3590292749917362,-0.5504321602743542
0.0,0.09140624127376148,0.2686486565254197,0.43509036312878646,0.4695145408392686,0.34949725996451136,0.2672622785361139,0.1595697437188542
-0.06093749418250766,-0.20956785144153364,-0.3796097942609975,-0.4478835659053565,-0.420590663713558,-0.4558984167728037,-0.5195233509266579,-0.5183336468431416
0.09140624127376148,0.1467736681604044,-0.014514086845534707,-0.22691086440159733,-0.21308348492217719,-0.13916121711683588,-0.0392748399845865,0.42014967671730064
-0.12187498836501531,-0.3277294616093058,-0.4296334378140677,-0.5253276410616775,-0.5847217322643325,-0.6100277492885966,-0.5728541868651544,-0.4770083940031263
-0.06093749418250766,-0.14863035725902599,-0.1700419428194639,-0.22061750710062816,-0.14623613486261666,-0.015449882880138238,-0.10591464700577087,-0.28227295636753735
-0.06093749418250766,-0.11816161016777216,-0.1414298848268316,-0.19374899622547148,-0.21241116498636894,-0.1994673608557124,-0.21778106680522108,-0.2654475284962252
0.0,-0.06093749418250766,-0.17909910435027981,-0.25959149499460377,-0.24377263977854166,-0.1984489988689284,-0.18635601415482858,-0.20546869271764723
0.03046874709125383,0.05908080508388608,0.0554805688677889,0.08256846911641963,0.07753695350997925,0.07281204585653551,0.15978130350949787,0.18051337834766817
-0.03046874709125383,-0.15048704635764756,-0.23272298411944714,-0.27947892281104014,-0.2929169246693627,-0.18366106000260388,-0.11153172104463435,-0.2266102458073272
-0.03046874709125383,-0.05908080508388608,-0.0554805688677889,-0.11303721620767346,-0.16708650568511915,-0.06549843144319517,-0.0005696269756544289,-0.061472409517646945
0.0,0.0,-0.09140624127376148,-0.2686486565254197,-0.4046216160375326,-0.5323087241203978,-0.7131523939797897,-0.7611009153941664
-0.12187498836501531,-0.2667919674267981,-0.3419405747375493,-0.32110357295371655,-0.21013008457110552,-0.28873152503874544,-0.42348068486765944,-0.4890810743708936
-0.03046874709125383,-0.08954955217513991,-0.17549886813418264,-0.1648044068782192,-0.18523038638407993,-0.26534915206513787,-0.27964818674608904,-0.4149508624493695
0.0,-0.03046874709125383,-0.21142454054015522,-0.3813533413784731,-0.4190521185392502,-0.48492237377735853,-0.5772474078113481,-0.5116026501647226
0.03046874709125383,0.02861205799263225,-0.06453773039860483,-0.18247995119290292,-0.26276632150242263,-0.2467540003145098,-0.20124868276458002,-0.18898509232937608
-0.06093749418250766,-0.11816161016777216,-0.1414298848268316,-0.16328024913421765,-0.21426785408499052,-0.2621484021556957,-0.30711122960688697,-0.4407403762956037
-0.03046874709125383,-0.12001829926639374,-0.2650484203093225,-0.4317095162861633,-0.5272772085139573,-0.5560837508700768,-0.6136036418102058,-0.6066809205482847
-0.12187498836501531,-0.2667919674267981,-0.25053433346378784,-0.23526739897581983,-0.3123370344931586,-0.3542414924532577,-0.33265490356768446,-0.37332124149925366
0.03046874709125383,0.05908080508388608,0.08594931595904273,0.019774285835290395,-0.07283695086652234,-0.00746095541431438,-0.037475050578412474,-0.18753515035807042
-0.03046874709125383,-0.08954955217513991,-0.20596761522543647,-0.34576020032712057,-0.3551591872223978,-0.30304792922591495,-0.25411220071043594,-0.14722099868417804
0.24374997673003063,0.5335839348535962,0.5924749082013371,0.4954334777470286,0.28243052053147655,0.11287617687335791,-0.07681469704572902,-0.2854150315301506
0.03046874709125383,0.05908080508388608,0.08594931595904273,0.17211802129155954,0.2530358216441619,0.26808519982600854,0.2822175066124486,0.26501987894505075
-0.03046874709125383,-0.08954955217513991,-0.1450301210429288,-0.22759859015934844,-0.27466679657807386,-0.34933553153323094,-0.41945414088644295,-0.42436240370760037
-0.09140624127376148,-0.20771116234291206,-0.22552251168725276,-0.21177973494328628,-0.29028064985096824,-0.3639979157131418,-0.40275428902443494,-0.43914894606253607
-0.06093749418250766,-0.14863035725902599,-0.20051068991071772,-0.15782332381949893,-0.08726847175987654,-0.08195054976969272,-0.16836292989361024,-0.2495095561064299
-0.06093749418250766,-0.08769286307651833,-0.051880332651691716,-0.07918762227379651,-0.1352996211846681,-0.1575235483970857,-0.23933069935679183,-0.25521523334829566
-0.06093749418250766,-0.14863035725902599,-0.1700419428194639,-0.1596800129181205,-0.058543271786098305,0.03643044977155351,0.003741722359279505,-0.14883002428149078
-0.2132812296387768,-0.4745031297697102,-0.567463086424802,-0.5938208020795104,-0.4966973562248305,-0.4054923697869053,-0.5331264163182337,-1.0186077289766151
-0.06093749418250766,-0.08769286307651833,-0.08234907974294554,-0.10779968026642876,-0.22310562624233238,-0.3923226109886285,-0.42935294834635035,-0.46412674973675977
-0.03046874709125383,-0.05908080508388608,-0.02501182177653507,-0.05395641112378737,-0.05066844263482259,-0.04758083470652636,-0.19702511332466768,-0.2459563908101455
0.06093749418250766,0.08769286307651833,-0.009057161530815941,-0.06944273498522947,-0.06521106872604963,-0.0917060166961747,-0.1775239231110121,-0.319049795535448
-0.12187498836501531,-0.38866695579181343,-0.6087325421643475,-0.5411691593262506,-0.3558479313717855,-0.33416345012395987,-0.3442691139172782,-0.2928214696994732
0.0,0.06093749418250766,0.11816161016777216,0.08049239064432397,-0.046287602307315975,-0.1958106872672608,-0.2143472217422931,-0.1708166920730816
-0.03046874709125383,-0.15048704635764756,-0.2022542370281933,-0.18992937063590024,-0.23929304490019537,-0.3465861147336905,-0.4778097608396374,-0.6010369667743958
-0.03046874709125383,-0.12001829926639374,-0.17364217903556106,-0.2544671010345051,-0.4522417431843522,-0.5160895058637301,-0.48464030460250573,-0.5465137801339432
0.03046874709125383,0.05908080508388608,0.11641806305029656,0.1093238380104303,0.04172442308515263,-0.05222439997762883,-0.26232320554658395,-0.3986816221909213
-0.06093749418250766,-0.14863035725902599,-0.20051068991071772,-0.27969831218451424,-0.293122945004167,-0.1838545259744546,-0.08124465059369707,-0.07629380517078378
0.0,-0.03046874709125383,-0.08954955217513991,-0.1450301210429288,-0.1971298430680946,-0.2460547385854416,-0.20059203229305894,-0.15789970940088943
-0.06093749418250766,-0.11816161016777216,-0.1109611377355778,-0.19560568532409306,-0.2446234591950984,-0.22971671857349218,-0.2766558515543029,-0.2902658843009097
-0.03046874709125383,-0.12001829926639374,-0.1127046848530534,-0.01443050250171761,0.047386350343039126,0.014029997803426078,-0.10869994347111611,-0.10207604129820608
-0.03046874709125383,-0.1809557934489014,-0.41367877756834853,-0.5712827120143733,-0.6278764163481917,-0.6200839479708937,-0.6127663330900047,-0.575425888232096
0.03046874709125383,0.08954955217513991,0.08409262686042115,0.048499485809068626,0.04554404867472389,0.042768708473560055,-0.020775003632748534,-0.1718527624260055
0.03046874709125383,-0.032325436189875406,-0.0912930992926155,-0.14666742076807632,-0.1986673698507659,-0.24749857233873843,-0.32382287080042904,-0.24315242231235729
-0.03046874709125383,-0.05908080508388608,-0.11641806305029656,-0.23119882637544562,-0.18664140214693545,-0.08386170151563,-0.10922012665863992,-0.1330332729170201
-0.18281248254752297,-0.3544848305033165,-0.3633521602979872,-0.31074164305237323,-0.2613370788953525,-0.2454118521704934,-0.10858208049152021,0.05037837486302553
-0.06093749418250766,-0.08769286307651833,-0.051880332651691716,-0.07918762227379651,-0.07436212700216042,-0.130768179503075,-0.24467448269036457,-0.22976463282481238
-0.03046874709125383,-0.02861205799263225,-0.08780600505766431,-0.1433928213177813,-0.13465482210291563,-0.09598054757311877,-0.12060048060500177,-0.2960638720672498
0.15234373545626914,0.26493527832817654,0.15738454507255073,-0.004549810183493597,-0.0652100503344131,-0.12217380745402642,-0.48035380686808776,-0.847175961742818
0.06093749418250766,0.08769286307651833,0.021411585560437887,-0.04083067699259722,-0.06881130494214681,-0.15602435772130546,-0.2379228656040954,-0.22342444236546027
0.0,-0.03046874709125383,0.06279418328112923,0.15037390437650158,0.04980425417959605,0.016300560639008956,0.07624473950240539,0.10206732322378458
0.06093749418250766,0.0572241159852645,-0.12907546079720966,-0.36495990238580583,-0.49506389591359135,-0.5867709310014027,-0.6728895691720553,-0.6318853649651631
-0.09140624127376148,-0.1467736681604044,-0.13782964861073443,-0.251305643565356,-0.3273979486463222,-0.24650964387281432,-0.20101921679212884,-0.1583008623470324
-0.06093749418250766,-0.24003659853278747,-0.43869059934488364,-0.5643016289556531,-0.590851995906496,-0.6462531971169823,-0.6982783879510006,-0.7471332940212272
0.06093749418250766,0.17909910435027981,0.1681852537208423,0.06653022452688342,-0.028930201916945952,-0.05763601499718711,-0.08459256775984692,-0.17084394992785934
0.0,-0.03046874709125383,-0.05908080508388608,-0.0554805688677889,-0.021630974933911966,0.040624656657792926,0.06861783897029612,0.06443643980722745
-0.03046874709125383,-0.15048704635764756,-0.26319173121070094,-0.24715348662116474,-0.23209257246800102,-0.21794943268342895,-0.14373064621469397,-0.043565819523376514
-0.06093749418250766,-0.20956785144153364,-0.288203552987236,-0.3011098977449521,-0.3436985092853312,-0.4446293717402351,-0.5089410132602039,-0.47792742322542064
0.03046874709125383,0.15048704635764756,0.11084799575443183,-0.048250538798265644,-0.13671651314470495,-0.21979159269405824,-0.35874177924916906,-0.5196934367106734
-0.06093749418250766,-0.0572241159852645,0.068137966614702,0.18586079803552602,0.23547240091898758,0.22112330285784565,0.17717985578507497,0.04450797098889911
-0.06093749418250766,-0.11816161016777216,-0.05002364355307014,0.01396216611744057,-0.04782614748162383,-0.10584923608019828,-0.19080529014609982,-0.36199057643535315
-0.03046874709125383,-0.08954955217513991,-0.20596761522543647,-0.2543539590533591,-0.23885426615324723,-0.3157053269728281,-0.3878732767207962,-0.3947059982683263
-0.03046874709125383,-0.05908080508388608,-0.0554805688677889,-0.052099722025165794,-0.14033113679110848,-0.2536546973242909,-0.29913510986423386,-0.2809065658470983
-0.09140624127376148,-0.17724241525165824,-0.13597295951211286,-0.06674961390035747,0.05919292867339551,0.1774608482917302,0.16664682888133,0.00414805325957146
0.09140624127376148,0.17724241525165824,0.16644170660336668,0.09536167189298972,-0.06279316488949269,-0.11990420095184565,-0.17353503358639197,-0.2848352318517752
0.24374997673003063,0.5640526819448501,0.5906182191027157,0.49368993062955335,0.4636057033538523,0.4048859864114957,0.2888070076962048,0.27120783234484985
0.09140624127376148,0.1467736681604044,0.04642340733697295,-0.04781176005131751,-0.13630447247509636,-0.18893591365910306,-0.29929762088465,-0.4334029093094224
0.06093749418250766,0.14863035725902599,0.20051068991071772,0.15782332381949893,0.05679972466862271,-0.007599002405447183,-0.03760468533182621,-0.03531315003818302
-0.09140624127376148,-0.20771116234291206,-0.31692875296101425,-0.29761590892118295,-0.3099486882939304,-0.41293618026915846,-0.38777288418625966,-0.4250804704945329
0.0,0.03046874709125383,0.05908080508388608,-0.005456925314718759,-0.09653063523386018,-0.15158579439337072,-0.1728172830206277,-0.19275497793317525
-0.03046874709125383,-0.12001829926639374,-0.17364217903556106,-0.19352960685199744,-0.2426738917428185,-0.3192921941502555,-0.36077282210921185,-0.33878823036072486
0.0,-0.06093749418250766,-0.17909910435027981,-0.2900602420858576,-0.3028534448624277,-0.28439831482797107,-0.3889427825376419,-0.3957103310806798
0.0,0.03046874709125383,0.02861205799263225,-0.034068983307351,-0.15386789320027067,-0.2968353048097736,-0.40062189351478045,-0.5285527346656075
0.0,-0.03046874709125383,-0.15048704635764756,-0.32412922539320865,-0.3957838438801907,-0.37166576819621105,-0.379486134700171,-0.356361200574537
-0.09140624127376148,-0.2381799094341659,-0.4064783051361541,-0.5035835241466194,-0.5338339002560357,-0.6841158826122812,-1.00805254009048,-1.525530539026877
0.0,-0.03046874709125383,-0.15048704635764756,-0.23272298411944714,-0.127135187354771,-0.027981646341186134,-0.026276514930053115,-0.17701902541063558
-0.03046874709125383,-0.05908080508388608,-0.08594931595904273,-0.17211802129155954,-0.34444206291792334,-0.5367338563514282,-0.6868391226499811,-0.7363911088829407
0.12187498836501531,0.2667919674267981,0.25053433346378784,0.08292366351955069,-0.16587947347379478,-0.2776461823890033,-0.26072711976487795,-0.00108908569095309
0.03046874709125383,0.05908080508388608,0.02501182177653507,-0.09838732433248176,-0.30567307696711543,-0.34798361980019027,-0.2353721287192467,-0.12962289972093166
0.0,-0.09140624127376148,-0.20771116234291206,-0.22552251168725276,-0.21177973494328628,-0.16840566148595293,-0.15814344246885131,-0.2094440715459116
0.0,0.0,-0.03046874709125383,-0.05908080508388608,-0.08594931595904273,-0.1416492742003057,-0.2853612578340373,-0.5117220345748932
-0.03046874709125383,-0.08954955217513991,-0.1450301210429288,-0.22759859015934844,-0.3356042907605815,-0.4065596475184954,-0.4122536684542485,-0.3566632158398464
-0.03046874709125383,-0.02861205799263225,-0.05733725796641048,-0.14524951041640288,-0.2582733575854066,-0.4253473089075721,-0.4908339510192331,-0.27811127743689834
-0.09140624127376148,-0.11630492106915058,-0.1092175906181022,-0.22443713269019938,-0.3326354845875669,-0.40377175295437795,-0.4096356611989135,-0.5065484788426723
0.12187498836501531,0.2667919674267981,0.28100308055504164,0.2029419627859444,0.03823145265302008,-0.08597326463562746,-0.20260925768705804,-0.3426064926816999
-0.12187498836501531,-0.23632322033554432,-0.2219222754711556,-0.20839888810066318,-0.22616832916064178,-0.2733236921006553,-0.25666803120333015,-0.14962108327128001
-0.09140624127376148,-0.20771116234291206,-0.31692875296101425,-0.38902215019494446,-0.3957848622718272,-0.40213547162086694,-0.3471615965671365,-0.2650689446134289
0.12187498836501531,0.23632322033554432,0.2219222754711556,0.14746139391815552,-0.04433701646339952,-0.285385206510622,-0.45080702969663017,-0.5147422202208197
0.0,-0.03046874709125383,-0.08954955217513991,-0.11456137395167498,-0.16851778507546233,-0.28012372189279255,-0.2630536842195681,-0.24702385186775094
0.03046874709125383,-0.06279418328112923,-0.21131139855900924,-0.19843461143862204,-0.21681125054972666,-0.3254743045956658,-0.427515704417827,-0.4928702099406964
-0.06093749418250766,-0.20956785144153364,-0.3796097942609975,-0.4174148188141027,-0.3310411115384182,-0.31086829572987495,-0.32239350785856347,-0.2722789082577002
0.03046874709125383,-0.032325436189875406,-0.12176184638386933,-0.1143419845782009,-0.19878051183191187,-0.3085423139135741,-0.3506780126369159,-0.420714814555682
-0.09140624127376148,-0.08583617397789675,0.041269455739545366,0.008285851429247731,-0.11409405595903449,-0.16807894427027978,-0.21877412876411523,-0.29684882283903025
0.0,-0.03046874709125383,-0.02861205799263225,-0.02686851087515665,-0.0861687053325168,-0.050449053261348506,0.0135626798107856,0.07367369827122429
-0.03046874709125383,-0.15048704635764756,-0.2936604783019548,-0.33670303879630464,-0.28571645223716835,-0.23783686049986533,-0.2538124252880227,-0.2688144791898395
0.0,-0.03046874709125383,-0.05908080508388608,-0.1468868101415504,-0.1988733901855702,-0.1562857970368276,-0.14676213218908735,-0.16828756270385622
-0.03046874709125383,-0.12001829926639374,-0.32598591449183023,-0.48893363227142783,-0.5505454831730168,-0.547465368086209,-0.575041694585839,-0.7532813243060918
0.0,0.03046874709125383,0.12001829926639374,0.14317343194430723,0.043042560494349874,-0.05098658655913629,-0.10881708591981065,-0.10218604537961476
-0.06093749418250766,-0.11816161016777216,-0.08049239064432397,-0.04511863896644551,-0.04236922216690507,-0.16166233630260723,-0.27368602698965183,-0.31794578049464395
-0.15234373545626914,-0.38681026669319185,-0.48511400668185645,-0.5774273630868432,-0.6336466277816795,-0.5950337900874677,-0.6501801632393787,-0.7324348016894124
0.03046874709125383,0.05908080508388608,-0.005456925314718759,-0.03559314105135253,-0.002955437134344728,0.05816215398134383,0.11555539224397122,-0.10476749343742997
-0.03046874709125383,-0.12001829926639374,-0.2041109261268149,-0.2526104119358835,-0.29815446061060735,-0.43232941035792893,-0.5583280748855848,-0.6461799494353291
-0.03046874709125383,-0.02861205799263225,0.034068983307351,0.09293039901776301,0.08726745336823996,0.021012099253782918,-0.07167456669601824,-0.06730689820494587
0.09140624127376148,0.11630492106915058,0.017811349344340713,-0.01374277674396649,-0.10431156763984102,-0.2502988175498891,-0.35692122317656944,-0.48751507367190283
-0.06093749418250766,-0.20956785144153364,-0.34914104716974365,-0.4192715079127243,-0.5460658882946705,-0.7260712310422249,-0.8646387521720261,-1.086168557062857
0.0,-0.03046874709125383,-0.08954955217513991,-0.1450301210429288,-0.25806733725060227,-0.42515384293572145,-0.49065227437891656,-0.491221901354571
-0.15234373545626914,-0.2954040254194304,-0.3078715914301984,-0.3500481623009689,-0.2982483573559023,-0.15819886144956924,-0.14855861925030678,-0.4137245530752643
-0.18281248254752297,-0.445891071777078,-0.4796570813671378,-0.5113654749442369,-0.5411416384721949,-0.5081658230258828,-0.41626197695898615,-0.3604272680683949
0.0,0.0,-0.18281248254752297,-0.41542232468582413,-0.4815137704657594,-0.5435777691529664,-0.5409222490987208,-0.4165535614173171
0.0,-0.06093749418250766,-0.20956785144153364,-0.288203552987236,-0.27064115065369826,-0.22368021001893748,-0.2405184456134202,-0.3172680955068281
0.06093749418250766,0.0572241159852645,-0.037669219523448184,-0.09631124586038611,-0.2427860153323279,-0.44127247357419674,-0.6581324115128989,-0.770371206971281
-0.03046874709125383,-0.08954955217513991,-0.053623879769167326,-0.0503561749076902,-0.19963133124846863,-0.3093412865268841,-0.38189704495250415,-0.4805001843624094
-0.03046874709125383,-0.12001829926639374,-0.2041109261268149,-0.16120417066212203,-0.09044329826769534,-0.08493191030566084,-0.07975637251550037,-0.07489621902931914
0.0,-0.06093749418250766,-0.24003659853278747,-0.3777531051623759,-0.2937962833316118,-0.18448683275148783,-0.2037134145451986,-0.25223712371395945
-0.06093749418250766,-0.11816161016777216,-0.17189863191808546,-0.2528298013093576,-0.32882922803666553,-0.49160368141366567,-0.5835215733024364,-0.5479632308239514
-0.12187498836501531,-0.2667919674267981,-0.31147182764629544,-0.3229602620523381,-0.394686114236104,-0.46204117271968637,-0.4338855414450014,-0.4379143908785763
0.0,0.0,-0.06093749418250766,-0.08769286307651833,0.03952590862206977,0.06758604588660788,-0.027938719665187475,-0.08717369828063105
-0.12187498836501531,-0.17538572615303666,-0.0732919182121296,-0.1602319336462146,-0.3028115365780656,-0.40623394869445884,-0.411947816900407,-0.3563760021132879
-0.03046874709125383,-0.02861205799263225,0.034068983307351,0.03199290483525535,-0.06136290389078604,-0.20996733774818863,-0.28857869559940325,-0.42333716847138814
-0.09140624127376148,-0.20771116234291206,-0.2864600058697604,-0.36041009220231224,-0.39938509848792436,-0.4359850655547438,-0.4094172281588414,-0.47587460947345506
0.0,-0.06093749418250766,-0.0572241159852645,-0.023268274659059472,-0.021850364307386044,-0.020518857859519034,-0.04973723716932672,-0.0771751216599207
0.06093749418250766,0.11816161016777216,0.08049239064432397,0.04511863896644551,-0.018568272015602585,-0.04790551513892641,-0.04498627308883804,-0.0727136694254481
0.03046874709125383,-0.032325436189875406,-0.15223059347512316,-0.2038915367533408,-0.19146689741857154,-0.17979938447098454,-0.13837411343451161,-0.1299419417020864
0.03046874709125383,0.02861205799263225,-0.034068983307351,-0.12339914610901684,-0.2682232468171414,-0.4042221297308776,-0.44052734023446904,-0.35274521381918783
-0.03046874709125383,-0.05908080508388608,-0.0554805688677889,-0.08256846911641963,-0.10800570060123307,-0.13189285094042158,-0.2457306194685406,-0.2612251583654662
0.03046874709125383,0.05908080508388608,0.0554805688677889,-0.03930651924859569,-0.09784877264305741,-0.09188611362935559,-0.177693045388375,-0.22780237065125647
0.12187498836501531,0.23632322033554432,0.2219222754711556,0.17793014100940935,0.07568128280299422,-0.05080553329255327,-0.20005330685936826,-0.24880005381894174
-0.06093749418250766,-0.14863035725902599,-0.20051068991071772,-0.2492295650932604,-0.3254483811940424,-0.5188976019971007,-0.6700897649416081,-0.7511311621537362
0.0,0.0,-0.09140624127376148,-0.1467736681604044,-0.16829839570198826,-0.24944895446673446,-0.23424816025508519,-0.18950491726102398
0.0,-0.03046874709125383,-0.02861205799263225,-0.02686851087515665,-0.0861687053325168,-0.050449053261348506,-0.04737481437172206,-0.13589415317030934
-0.06093749418250766,-0.14863035725902599,-0.1700419428194639,-0.12921126582686668,-0.0908687079759737,-0.08533139661231581,-0.08013151512766756,-0.13618599557324745
-0.06093749418250766,-0.17909910435027981,-0.2900602420858576,-0.3637909390449354,-0.2502161895394742,-0.1435624006712818,-0.04340782644178723,0.02017483191199214
0.03046874709125383,0.05908080508388608,0.11641806305029656,0.23119882637544562,0.2475788963294431,0.17155456459214832,0.100162965127824,0.0940592850230445
0.06093749418250766,0.0572241159852645,-0.007200472432194356,-0.06769918786775386,-0.06357376900090211,0.0012377513602581033,0.0011623258939429842,0.03156024375779649
0.06093749418250766,0.08769286307651833,0.021411585560437887,0.020106817189910437,0.01888155813437152,-0.04320653088710608,-0.1319798744362882,-0.18487484578812646
0.06093749418250766,0.026755368894010673,-0.09675002460733426,-0.09085432054566735,-0.14625538009846772,-0.289686679180826,-0.4243776343097636,-0.5203921130528413
-0.03046874709125383,-0.02861205799263225,0.003600236216097178,-0.057556647339884554,-0.175924277842461,-0.2870788815498895,-0.30005376096677605,-0.25130048956216977
-0.06093749418250766,-0.20956785144153364,-0.3796097942609975,-0.4783523129966103,-0.5710777100712056,-0.6886214008922509,-0.8294710208289521,-1.0226751120526596
-0.12187498836501531,-0.29726071451805197,-0.2791463914564201,-0.29260465694223037,-0.3661803036358,-0.31339744642199074,-0.3857060326275994,-0.9411082682420198
-0.03046874709125383,0.032325436189875406,0.24363683474888465,0.28972771073123754,0.2111349358615338,0.10686266066198596,-0.1129305117392079,-0.2583925447933414
-0.12187498836501531,-0.3277294616093058,-0.3991646907228139,-0.4053093417952838,-0.4720170474112791,-0.5346597526043713,-0.5934851683141829,-0.6182571635051404
0.06093749418250766,0.08769286307651833,-0.03952590862206977,-0.12852354006911554,-0.2120978788676,-0.3819856481555064,-0.5110521353994979,-0.5408473930541405
-0.06093749418250766,-0.08769286307651833,-0.20422406810796084,-0.37459164769322684,-0.4431712126148663,-0.5380404577893083,-0.5052536205228186,-0.3830584896877569
-0.09140624127376148,-0.11630492106915058,-0.017811349344340713,0.01374277674396649,-0.07850091490768195,-0.16512350713593504,-0.276936282745459,-0.4733417092655091
-0.06093749418250766,-0.14863035725902599,-0.20051068991071772,-0.15782332381949893,-0.08726847175987654,-0.08195054976969272,-0.04648794152859494,-0.013186335770885599
-0.06093749418250766,-0.24003659853278747,-0.3472843580711221,-0.3261217195214872,-0.4281236675003725,-0.6457848607327054,-0.6369010966299083,-0.506683698485429
-0.03046874709125383,-0.02861205799263225,0.003600236216097178,0.0033808468426231027,-0.08823141476594268,-0.23519854889819775,-0.22086613869297955,-0.1464696154687555
-0.06093749418250766,-0.08769286307651833,-0.08234907974294554,-0.13826842735768258,-0.09937394877869549,-0.0019121080793394196,0.02867315808687548,0.02692588768276238
0.06093749418250766,0.08769286307651833,0.08234907974294554,0.016393438992667278,-0.106480524465595,-0.19139810939918392,-0.27114102949488966,-0.376493362952421
0.12187498836501531,0.23632322033554432,0.2828597696536632,0.29609175117718145,0.2171111676298258,0.08200596875041052,-0.07533500494951767,-0.16215051979742873
0.06093749418250766,0.11816161016777216,0.08049239064432397,0.04511863896644551,0.04236922216690507,-0.05161889333616957,-0.17034835568880455,-0.1904365008462721
0.03046874709125383,-0.0018566890986215778,-0.18455602966499857,-0.29518463604595635,-0.24672807691288642,-0.2316930861613461,-0.27851178425376943,-0.32247746820355316
0.0,0.0,-0.12187498836501531,-0.2667919674267981,-0.37240932182880315,-0.5020593664026181,-0.5324026208656927,-0.5608968334364453
0.06093749418250766,0.14863035725902599,0.20051068991071772,0.1273545767282451,0.028187666675990444,0.02646998090190381,-0.06654927467907853,-0.15390016991423355
-0.09140624127376148,-0.2686486565254197,-0.37415286894627875,-0.3513529306714963,-0.2690048693201873,-0.2526123866609221,-0.2981563150008504,-0.3104561633812619
-0.09140624127376148,-0.2686486565254197,-0.31321537476377115,-0.3550663088687396,-0.3943669519201539,-0.3093977238992386,-0.22960630771653998,-0.2765521688583039
-0.09140624127376148,-0.2381799094341659,-0.254134569679885,-0.26911699290969676,-0.3441239189936096,-0.38409136386438236,-0.4520920398871066,-0.48548017801903565
-0.12187498836501531,-0.3277294616093058,-0.4905709319965754,-0.5520830099556882,-0.48797170765699827,-0.33636094619540624,-0.16352021753713172,-0.0926182110497327
0.12187498836501531,0.2058544732442905,0.10190397620476185,0.06522545615635594,0.0003132861187689351,-0.0911120460260325,-0.26837238879888775,-0.3434246891914713
-0.03046874709125383,-0.1809557934489014,-0.2918037892033332,-0.3044907445875752,-0.31640458870189625,-0.38852992719231716,-0.4257913811968129,-0.43031346847342405
0.06093749418250766,0.08769286307651833,0.051880332651691716,0.018250128091288856,0.01713801101689592,0.0465624106615079,-0.04768122724106275,-0.1971193881897148
0.06093749418250766,0.08769286307651833,0.11281782683419937,0.13641173825906103,0.09763040166121989,0.15261854381046108,0.35659958182364515,0.6700255148845742
-0.12187498836501531,-0.29726071451805197,-0.4314901269126893,-0.4966024410878993,-0.4968094798143401,-0.5579413963021005,-0.5848793398932686,-0.6101757527035612
-0.03046874709125383,-0.05908080508388608,-0.02501182177653507,0.006981083058720285,-0.1153193150145734,-0.23016703329175736,-0.24660997813078966,-0.292519678205604
-0.03046874709125383,-0.05908080508388608,-0.08594931595904273,-0.1416492742003057,-0.1939550165602758,-0.33447961932323494,-0.43597225783157323,-0.3789364538149732
0.0,-0.06093749418250766,-0.11816161016777216,-0.1109611377355778,-0.1346681911415854,-0.1264618490273262,-0.11875558083791435,-0.14198766041271743
-0.06093749418250766,-0.08769286307651833,0.009057161530815941,0.008505240802721817,-0.11388803562423018,-0.19835422538968292,-0.18626701593392328,-0.20538511782531058
0.03046874709125383,-0.032325436189875406,-0.15223059347512316,-0.23436028384459462,-0.3724226908674729,-0.5325406678568254,-0.6829014565548743,-0.7326933942925972
-0.03046874709125383,-0.05908080508388608,-0.11641806305029656,-0.23119882637544562,-0.3085163905119508,-0.38112241603368197,-0.4797727593888215,-0.45053660965463954
0.0,-0.03046874709125383,-0.08954955217513991,-0.1450301210429288,-0.16666109597684078,-0.12603643931904787,-0.1183560945312594,-0.14161251780055029
-0.18281248254752297,-0.445891071777078,-0.6015320697321531,-0.6867512010972735,-0.675371050866832,-0.6037468842923466,-0.506018567860567,-0.44471431723406896
0.0,0.03046874709125383,-0.06279418328112923,-0.21131139855900924,-0.22890335852987587,-0.24542330854235891,-0.35234281547082247,-0.6355593981153591
-0.06093749418250766,-0.17909910435027981,-0.22912274790334997,-0.21516058178590938,-0.2629867292675332,-0.21649222989146236,-0.14236224170938558,-0.22509328470717263
-0.03046874709125383,-0.15048704635764756,-0.2022542370281933,-0.18992937063590024,-0.23929304490019537,-0.3465861147336905,-0.4778097608396374,-0.6010369667743958
0.0,-0.06093749418250766,-0.14863035725902599,-0.20051068991071772,-0.2492295650932604,-0.2949796341027886,-0.33794180854819933,-0.4087547228295288
0.06093749418250766,0.14863035725902599,0.13957319572821006,0.0701304607429806,0.03538813910818481,0.06370042167840384,0.1512249188767143,0.5685721105399679
-0.03046874709125383,-0.02861205799263225,-0.08780600505766431,-0.20433031550028896,-0.2528164322706878,-0.2678791794912042,-0.19061779936683637,-0.14853328123558354
0.03046874709125383,-0.0018566890986215778,-0.0017435471174755968,0.05930019445736016,-0.005250904979914463,-0.15727466344451718,-0.33050322210333405,-0.34083193102036585
-0.2132812296387768,-0.504971876860964,-0.6265438915086881,-0.6493013709472992,-0.609734572432504,-0.6030476225632783,-0.5967681586628072,-0.49946510828347884
0.06093749418250766,0.026755368894010673,-0.1576875187898419,-0.300422171987201,-0.34305269181194226,-0.47449165585662756,-0.6893273000682465,-0.7691964100955093
0.03046874709125383,0.05908080508388608,-0.005456925314718759,-0.09653063523386018,-0.12111704730211688,-0.08326773084548779,-0.0172561097989926,0.014264181382750055
0.0,-0.09140624127376148,-0.17724241525165824,-0.13597295951211286,-0.03628086680910364,-0.03407000169898755,-0.1843375966249266,-0.44732324922426214
-0.06093749418250766,-0.14863035725902599,-0.13957319572821006,-0.2529429432905036,-0.4203417167027551,-0.48613338706027714,-0.5479158778881302,-0.5449960043580725
-0.06093749418250766,-0.11816161016777216,-0.1109611377355778,-0.07373069695907776,-0.13017522722456937,-0.2745864105291347,-0.28832254982617367,-0.17934665484969395
0.03046874709125383,0.02861205799263225,0.05733725796641048,0.02337452205138757,-0.16086234529766075,-0.21199729124940767,-0.2295474546384433,-0.3983718905043267
-0.06093749418250766,-0.026755368894010673,0.06628127751608043,0.0013047683705274399,-0.09018098221822257,-0.02374808495641914,0.06910530510621983,0.09536294806958297
-0.09140624127376148,-0.1467736681604044,-0.1987671427932421,-0.24759226536811288,-0.2629733602288634,-0.338354663893524,-0.4396111668959033,-0.5346973523356341
-0.15234373545626914,-0.26493527832817654,-0.24879078634631221,-0.3250363405244338,-0.39663568168838403,-0.5248094325991923,-0.6147038492182693,-0.6381828311650735
0.03046874709125383,0.05908080508388608,-0.03592567240597259,-0.06420519904398478,0.031113546173006282,0.09015505881659919,0.1760674767182005,0.10440087169744869
0.09140624127376148,0.11630492106915058,0.017811349344340713,-0.04421152383522032,-0.04151738435871177,0.021950075191627817,0.11201873388609387,0.1661300871240858
-0.03046874709125383,-0.05908080508388608,-0.02501182177653507,0.006981083058720285,0.006555673350441914,-0.11571880132122837,-0.26101092299517836,-0.3060430655760964
-0.12187498836501531,-0.14491697906178283,-0.014211113128243524,-0.07428261768717188,-0.1916310094690137,-0.1799534959443076,-0.19945632792333326,-0.4005831887396176
-0.06093749418250766,-0.11816161016777216,-0.20236737900933927,-0.31191060639324364,-0.3233723027219467,-0.45601054036231314,-0.519628641985584,-0.45749502754626925
-0.09140624127376148,-0.2686486565254197,-0.4046216160375326,-0.41043373575538245,-0.38542293237048386,-0.39240497176260625,-0.3989615431698892,-0.43558732063643735
-0.03046874709125383,-0.05908080508388608,-0.08594931595904273,-0.11118052710905188,-0.07393671729388206,-0.0694311990139124,-0.12613772991042524,-0.2403262010928293
-0.09140624127376148,-0.2686486565254197,-0.37415286894627875,-0.5036966661277654,-0.6253463889221252,-0.6481768411676386,-0.6391473157710033,-0.8744180037557268
0.03046874709125383,-0.06279418328112923,-0.27224889274151687,-0.43847120997140954,-0.5336268615295949,-0.5315777248507592,-0.49918471033511536,-0.40782815077056483
-0.06093749418250766,-0.24003659853278747,-0.4082218522536298,-0.5966270651455285,-0.7430825893816192,-0.8196759867790693,-0.86113322737694,-0.8695954205258012
-0.03046874709125383,-0.05908080508388608,-0.1468868101415504,-0.25981088436807787,-0.2135099130220921,-0.07862416557438531,-0.07383300594209169,-0.13027130175452606
-0.03046874709125383,-0.12001829926639374,-0.2650484203093225,-0.34030327501240176,-0.44144103453606054,-0.5973532066096221,-0.6523582403307074,-0.7344801522206593
-0.09140624127376148,-0.2686486565254197,-0.37415286894627875,-0.4732279190365116,-0.5662655838382392,-0.5317587781173422,-0.49935473066931924,-0.49939405176540375
0.06093749418250766,0.08769286307651833,0.051880332651691716,0.018250128091288856,-0.10473697734811939,-0.1897608096740364,-0.17819726143845688,-0.10640087267370446
0.0,0.0,-0.03046874709125383,-0.15048704635764756,-0.23272298411944714,-0.21854142862853249,-0.17475531450159054,-0.1031686693582799
-0.09140624127376148,-0.17724241525165824,-0.1969104536946205,-0.21537997115938345,-0.2631927496023375,-0.3385606842283283,-0.34839839159399255,-0.41857410790680005
0.03046874709125383,0.02861205799263225,-0.034068983307351,-0.15386789320027067,-0.2663665577185198,-0.2196661000658791,-0.20628019837102043,-0.3765224825303428
-0.06093749418250766,-0.17909910435027981,-0.22912274790334997,-0.27609807596841707,-0.32021084525279775,-0.3311667458242833,-0.34145502126842986,-0.32064760789629687
0.0,0.03046874709125383,-0.0018566890986215778,-0.2150247767562524,-0.41520293531235003,-0.5422452443134628,-0.631077166257634,-0.6230896522013498
0.0,0.0,0.0,-0.09140624127376148,-0.2381799094341659,-0.3150720638623926,-0.3872786030774688,-0.4550850567291873
0.03046874709125383,-0.0018566890986215778,-0.18455602966499857,-0.356122130228464,-0.3953584341719124,-0.31032878770704847,-0.26094938192023176,-0.2145790333862848
-0.06093749418250766,-0.17909910435027981,-0.3509977362683653,-0.5428900433952152,-0.6926201670816009,-0.7418198709531398,-0.6966152268824642,-0.7151027347293755
-0.09140624127376148,-0.2381799094341659,-0.3150720638623926,-0.3872786030774688,-0.4550850567291873,-0.4273533137322063,-0.40131147366277453,-0.5901377877098524
0.09140624127376148,0.20771116234291206,0.07317877623098362,-0.14456178465865177,-0.16622129883825607,-0.12562344231603714,-0.08749951743946321,0.07017621935174545
0.12187498836501531,0.29726071451805197,0.309615138547674,0.19934172656984733,0.18719434126666623,0.26719342845849187,0.15950508919243678,0.058379007473930794
-0.03046874709125383,-0.12001829926639374,-0.17364217903556106,-0.3458733423082666,-0.5685466642535026,-0.5643696022993244,-0.49950958585117133,-0.4386019762780049
0.0,0.03046874709125383,0.05908080508388608,0.02501182177653507,-0.006981083058720285,-0.037024420441695745,-0.1261744863101807,-0.20989197055843464
-0.12187498836501531,-0.29726071451805197,-0.40102137982143543,-0.43752163600401317,-0.471797658037805,-0.5649224793608207,-0.5609662661524567,-0.4963136404809545
-0.03046874709125383,-0.08954955217513991,-0.1450301210429288,-0.1971298430680946,-0.3069922327679493,-0.37969113664333887,-0.35655371021298565,-0.3652949676623841
0.0,-0.06093749418250766,-0.17909910435027981,-0.1681852537208423,-0.1579364658006449,-0.33112469588223525,-0.49375926920074986,-0.6160145520625391
0.0,0.0,0.03046874709125383,0.02861205799263225,0.05733725796641048,0.20618700459891054,0.25455997938816344,0.14764149085133646
-0.12187498836501531,-0.2667919674267981,-0.31147182764629544,-0.4143665033260996,-0.450053541122747,-0.3921596589875087,-0.39873117914059697,-0.4963084885963478
-0.09140624127376148,-0.17724241525165824,-0.22737920078587434,-0.3353982704257772,-0.3758974344553909,-0.352991186730046,-0.39241828252471495,-0.7036615137200475
0.0,-0.09140624127376148,-0.2686486565254197,-0.37415286894627875,-0.44275917194525777,-0.4462472845718455,-0.44952284035554263,-0.5440050332514877
-0.03046874709125383,-0.02861205799263225,-0.08780600505766431,-0.20433031550028896,-0.1614101909969263,-0.15157425842205363,-0.2337439442050033,-0.3413751623298298
0.0,0.0,0.0,-0.03046874709125383,-0.15048704635764756,-0.26319173121070094,-0.30809098080367237,-0.3502541826357731
0.03046874709125383,-0.06279418328112923,-0.15037390437650158,-0.17167924254461137,-0.22215503388329944,-0.26955495698092874,-0.37500394172305257,-0.3521521412058866
0.03046874709125383,-0.0018566890986215778,-0.06268104129998325,-0.058861415710412,-0.0552745485329846,-0.17378124441833043,-0.3155351863038286,-0.3267760098153164
0.03046874709125383,0.05908080508388608,-0.005456925314718759,-0.15746812941636784,-0.422091140017412,-0.5791824461756359,-0.5134197721399436,-0.3907270164882199
-0.03046874709125383,-0.05908080508388608,-0.17735555723280422,-0.34936043654321774,-0.51088376952129,-0.6625642753356717,-0.8050017512093898,-0.9082906971344282
-0.03046874709125383,-0.05908080508388608,-0.11641806305029656,-0.26166757346669944,-0.3675971955958368,-0.37566549071896316,-0.3832421241549613,-0.3294195623525226
0.0,-0.03046874709125383,-0.02861205799263225,0.034068983307351,0.062461651926509175,-0.002282098806899953,-0.03261178051538441,-0.061093247421200786
-0.18281248254752297,-0.3849535775945703,-0.48337045956438096,-0.6062588104529496,-0.5693149177178789,-0.504153546140177,-0.5953066807201847,-0.8332489071482749
-0.09140624127376148,-0.17724241525165824,-0.28831669496838197,-0.39262238641104164,-0.3991657091144504,-0.4967165394024473,-0.5578541194460168,-0.5238598872875873
-0.03046874709125383,-0.05908080508388608,-0.11641806305029656,-0.13979258510168413,-0.13127397526029255,-0.12327446815655382,-0.1157624309704121,-0.16964565268910733
-0.03046874709125383,-0.12001829926639374,-0.2041109261268149,-0.3135479061183912,-0.3858473236871257,-0.42327224882711295,-0.45841659280910146,-0.4914193285341395
-0.12187498836501531,-0.23632322033554432,-0.2828597696536632,-0.35702924535968916,-0.42667901907135947,-0.49208451010266185,-0.5535043544047402,-0.5197751860282087
0.06093749418250766,0.08769286307651833,0.021411585560437887,-0.07129942408385105,-0.18882960420854056,-0.2991977896656127,-0.46377790864596824,-0.40504769794462514
-0.06093749418250766,-0.20956785144153364,-0.34914104716974365,-0.32786526663896276,-0.3078859788605046,-0.3195929259060708,-0.30011773384289897,-0.28182931118278
0.06093749418250766,0.08769286307651833,-0.009057161530815941,-0.008505240802721817,-0.007986952740785133,-0.12937523621962288,-0.21289767478889052,-0.2608617181524807
0.0,0.0,-0.09140624127376148,-0.20771116234291206,-0.3473975000522681,-0.4785717023700844,-0.5712837304060099,-0.6583461197728476
-0.03046874709125383,-0.12001829926639374,-0.23457967321806872,-0.22028497574600808,-0.14592386713548422,-0.16750037942208046,-0.09635583184297195,0.09232833364693283
-0.12187498836501531,-0.2667919674267981,-0.31147182764629544,-0.3534290091435919,-0.3623606780462286,-0.37074807342707083,-0.3786243619506866,-0.44695818337072246
0.03046874709125383,0.08954955217513991,0.11456137395167498,0.10758029089295469,0.10102461754251278,0.003462189224964357,-0.08815502918455213,-0.0827830826064597
-0.06093749418250766,-0.17909910435027981,-0.25959149499460377,-0.33517888105230315,-0.3452226670293328,-0.32418566276556304,-0.3044306008267341,-0.19447312158611624
-0.06093749418250766,-0.14863035725902599,-0.1700419428194639,-0.12921126582686668,-0.15180620215848134,-0.17302425968883411,-0.10154310068810543,-0.09535531858065022
-0.03046874709125383,-0.08954955217513991,-0.20596761522543647,-0.3152914532358667,-0.3570158763210193,-0.39619771761715195,-0.4939294098697492,-0.6161743247855109
0.0,-0.03046874709125383,-0.05908080508388608,-0.11641806305029656,-0.13979258510168413,-0.13127397526029255,-0.2146807094303153,-0.23206735203956266
0.12187498836501531,0.114448231970529,-0.1058071861381502,-0.129828308439643,-0.06097940246686977,-0.057263470483792094,0.159507251554461,0.8200997153483774
-0.06093749418250766,-0.17909910435027981,-0.25959149499460377,-0.3047101339610493,-0.3166106090367006,-0.23637965770789876,-0.22197527369146053,-0.3912611392897496
0.0,0.0,0.03046874709125383,-0.06279418328112923,-0.15037390437650158,-0.11074174836210371,-0.1344621708067811,-0.217674624329237
0.03046874709125383,-0.032325436189875406,-0.15223059347512316,-0.2038915367533408,-0.22193564450982536,-0.23888018955487061,-0.2547921764848082,-0.17832828553000904
0.0,0.0,-0.06093749418250766,-0.11816161016777216,-0.1414298848268316,-0.16328024913421765,-0.21426785408499052,-0.3535546434294572
-0.03046874709125383,0.0018566890986215778,0.09314978839123708,0.14841096788555191,0.1698359224846596,0.15948654694626982,0.11929908932828942,0.05109180758386066
0.03046874709125383,0.12001829926639374,0.14317343194430723,0.043042560494349874,-0.11192408074164395,-0.19650994899632898,-0.21500387221381412,-0.17143332791031435
-0.09140624127376148,-0.1467736681604044,-0.1073609015194806,-0.07034985011645464,-0.035594159442989076,-0.00295639346774685,-0.033244985349258654,-0.031219119247940658
0.03046874709125383,0.08954955217513991,0.053623879769167326,0.01988742781643637,-0.01179320929168659,-0.16341829612535047,-0.3058037301121658,-0.25670006999621264
0.0,-0.03046874709125383,-0.05908080508388608,0.005456925314718759,0.03559314105135253,0.033424184225598556,0.12279363946755756,0.05437340859434667
0.0,-0.15234373545626914,-0.35634151960193805,-0.4260332015979704,-0.4610093000365466,-0.5547915368625029,-0.6123901720862012,-0.6055413966285272
-0.06093749418250766,-0.08769286307651833,-0.051880332651691716,-0.10965636936505034,-0.19438042626855415,-0.30441035853863607,-0.3772665953598543,-0.32380816730860484
-0.09140624127376148,-0.17724241525165824,-0.1969104536946205,-0.09350498279436814,-0.026869529266793188,-0.11663840875717274,-0.2618744918583447,-0.4896664932642103
0.0,-0.03046874709125383,-0.08954955217513991,-0.1450301210429288,-0.22759859015934844,-0.3051355436693277,-0.28654134825210176,-0.2995489836011952
0.0,-0.06093749418250766,-0.17909910435027981,-0.25959149499460377,-0.3047101339610493,-0.37754810321920823,-0.5068850033319401,-0.47599670139019956
0.0,-0.06093749418250766,-0.11816161016777216,-0.17189863191808546,-0.22236105421810376,-0.33068591713528706,-0.5542847227136489,-0.9166017128341328
0.0,-0.03046874709125383,0.0018566890986215778,-0.05919394706503206,-0.23839929880763996,-0.40668432547095845,-0.4123707488447086,-0.4177106558272017
-0.03046874709125383,-0.08954955217513991,-0.08409262686042115,-0.10943697999157628,-0.19417440593374988,-0.24327939838427776,-0.2589233085517657,-0.3345514122169383
-0.03046874709125383,-0.15048704635764756,-0.2022542370281933,-0.1594606235446464,-0.24114973399881695,-0.3483296618511661,-0.4489783134735311,-0.543493688473181
-0.03046874709125383,-0.1809557934489014,-0.41367877756834853,-0.6017514591056272,-0.6260197272495702,-0.4659966653971491,-0.4071312492191885,-0.4127904381796309
-0.15234373545626914,-0.32587277251068425,-0.39742114360533826,-0.43414078916139004,-0.4381540844387324,-0.5028603137409666,-0.5940922546627778,-0.6492960026241533
-0.06093749418250766,-0.14863035725902599,-0.26144818409322534,-0.3064536810785249,-0.28777916167059414,-0.30071136777169916,-0.3128555176387511,-0.29379088635267425
0.0,0.0,-0.06093749418250766,-0.0572241159852645,-0.08420576884156714,-0.29235570993142734,-0.45735276810578107,-0.5208890777337427
-0.09140624127376148,-0.2381799094341659,-0.34554081095364647,-0.4158906610701011,-0.5733598088781054,-0.721233181407635,-0.799158026976391,-0.8723343277216282
0.06093749418250766,0.08769286307651833,0.11281782683419937,0.1059429911678072,0.008080849486079997,0.03805716985878611,0.09667555547442128,-0.0006218518986534499
0.06093749418250766,0.08769286307651833,-0.0699946557133236,-0.21807309224425545,-0.29619050572802114,-0.3086101455995597,-0.228866722464916,-0.09304516953112524
0.03046874709125383,0.08954955217513991,0.1450301210429288,0.0752548547030793,-0.05120597593261038,-0.13949185334586878,-0.28333530480036684,-0.38794454967741077
-0.12187498836501531,-0.29726071451805197,-0.2486776443651663,-0.26399259894959803,-0.33931179276064327,-0.4405099707282506,-0.5964788794971841,-0.6210684454303433
-0.06093749418250766,-0.24003659853278747,-0.4082218522536298,-0.47475207678051323,-0.4458218748635673,-0.4186546069576339,-0.4540803384641806,-0.5787535559368976
0.0,-0.03046874709125383,-0.05908080508388608,-0.0554805688677889,-0.08256846911641963,-0.1384744476924869,-0.2214424031155615,-0.36029199342021556
-0.06093749418250766,-0.08769286307651833,-0.11281782683419937,-0.13641173825906103,-0.12809914875247372,-0.242168095985601,-0.3188172203190509,-0.3603267919930831
0.03046874709125383,0.02861205799263225,-0.034068983307351,-0.09293039901776301,-0.20914244173325527,-0.3792103079543425,-0.4779771703844431,-0.5402566806185312
0.03046874709125383,0.05908080508388608,0.02501182177653507,-0.006981083058720285,0.08485056792331958,0.0796799869341098,-0.07751924726241895,-0.1642016598570944
-0.03046874709125383,-0.05908080508388608,0.005456925314718759,0.126999382325114,0.18019785238600294,0.13874829971327668,0.313105808554189,0.7510571315357162
-0.03046874709125383,-0.08954955217513991,-0.053623879769167326,-0.08082492199894403,-0.2587121363323547,-0.3952906024859268,-0.4321400778790483,-0.5276815327622807
-0.03046874709125383,-0.05908080508388608,-0.0554805688677889,-0.08256846911641963,-0.04706820641872542,-0.07466873495515709,-0.1919935977182273,-0.11935649479168645
-0.06093749418250766,-0.14863035725902599,-0.1700419428194639,-0.1596800129181205,-0.11948076596860596,-0.17313740166998012,-0.3453993248104642,-0.750914014741738
-0.03046874709125383,-0.12001829926639374,-0.17364217903556106,-0.2544671010345051,-0.4522417431843522,-0.546558252954984,-0.48278361550388427,-0.4838327388339601
0.06093749418250766,0.17909910435027981,0.19865400081209614,0.15607977670202333,0.11609991912598286,-0.012849907385361653,-0.22534809586759721,-0.3639596830428955
0.03046874709125383,0.02861205799263225,0.05733725796641048,0.08431201623389523,0.10964300032638057,0.19436787190560054,0.15205483375083279,0.08185149902121158
0.0,-0.09140624127376148,-0.17724241525165824,-0.16644170660336668,-0.21723666025800503,-0.2649362967198131,-0.21832299558846055,-0.20501893931488108
-0.12187498836501531,-0.23632322033554432,-0.2523910225624094,-0.2674796931845492,-0.2816488980284306,-0.2949546670345673,-0.27698086872804484,-0.32103984283377135
-0.18281248254752297,-0.4763598188683318,-0.5996753806335314,-0.6240701597972901,-0.5860408880651661,-0.5198602777667296,-0.427243800932095,-0.34027114011577536
0.03046874709125383,0.05908080508388608,0.02501182177653507,-0.03744983014997411,-0.15704271970808947,-0.2998166653457417,-0.2815465890454167,-0.14251485704834138
-0.06093749418250766,-0.14863035725902599,-0.26144818409322534,-0.3064536810785249,-0.318247908761848,-0.3902609199468391,-0.42741689159042606,-0.49277741851939044
0.03046874709125383,0.02861205799263225,-0.09500647748985866,-0.08921702082051983,-0.08378035913328873,-0.1396124881685032,-0.07016735880042194,0.025514705492042197
-0.12187498836501531,-0.23632322033554432,-0.2828597696536632,-0.35702924535968916,-0.3962102719801056,-0.4025349579275219,-0.3475367391793037,-0.2958899740661034
-0.12187498836501531,-0.38866695579181343,-0.5477950479818398,-0.6058200317060014,-0.6298403712307781,-0.5609907301817403,-0.49633661373359594,-0.46609110422163935
-0.03046874709125383,-0.15048704635764756,-0.26319173121070094,-0.3690284749861801,-0.49888453989479914,-0.5294212603297244,-0.5885658966320474,-0.6136376599125173
-0.12187498836501531,-0.29726071451805197,-0.3705526327301816,-0.46984707219388855,-0.5326220102391667,-0.652509095045011,-0.7955593084091952,-0.7775486647724238
0.03046874709125383,-0.0018566890986215778,-0.06268104129998325,-0.08933016280166584,-0.05341785943436303,0.10218102652042962,0.24829810626754742,0.2941049360438487
0.0,0.06093749418250766,0.14863035725902599,0.048166954454448574,-0.13758070159993147,-0.22060311967032178,-0.3290351067137838,-0.4917970143600948
-0.09140624127376148,-0.20771116234291206,-0.22552251168725276,-0.2422484820345401,-0.25795521366109286,-0.33364231060303395,-0.3742484784241308,-0.44284895522110945
0.0,0.0,-0.03046874709125383,-0.08954955217513991,-0.17549886813418264,-0.19527315396947303,-0.1529049501942045,-0.23499354695503002
-0.06093749418250766,-0.11816161016777216,-0.1414298848268316,-0.2242177433167253,-0.30196071716150885,-0.43590372317240267,-0.56168457803372,-0.6188631686011472
-0.06093749418250766,-0.11816161016777216,-0.1109611377355778,-0.1346681911415854,-0.1264618490273262,-0.24063056920292966,-0.4087796278395156,-0.3838696216461175
-0.09140624127376148,-0.17724241525165824,-0.16644170660336668,-0.06489292480173589,-0.03046976548289037,-0.08955050850854201,-0.023156030734754474,-0.17408869570283453
-0.12187498836501531,-0.3277294616093058,-0.4905709319965754,-0.582551757046942,-0.5470525127408843,-0.5746539976107181,-0.8443234938868985,-1.5850599602626105
0.06093749418250766,0.11816161016777216,0.17189863191808546,0.19189230712684993,0.1497301236863857,0.17107469223655422,0.13018108208236107,0.03084193187653314
-0.03046874709125383,-0.15048704635764756,-0.2936604783019548,-0.3976405329788123,-0.49528430367870196,-0.5869779076696089,-0.6121464390182392,-0.6357812631342301
-0.03046874709125383,-0.12001829926639374,-0.2041109261268149,-0.19167291775337586,-0.17999285044283525,-0.13855579007482816,-0.038706306149429076,0.11599609461264726
0.03046874709125383,0.02861205799263225,-0.003600236216097178,-0.09478708811638459,-0.27182348303323856,-0.34666548239099304,-0.35600930366576955,-0.3343149887947181
-0.06093749418250766,-0.14863035725902599,-0.1700419428194639,-0.09874251873561285,-0.09272539707459529,-0.1784811850035529,-0.16760498883071182,-0.03551657243386572
-0.03046874709125383,-0.08954955217513991,-0.20596761522543647,-0.2848227061446129,-0.3284038183283871,-0.3693292067419954,-0.4077607045372325,-0.4133815360678935
0.12187498836501531,0.29726071451805197,0.3400838856389278,0.3498287729274948,0.35897983120360566,0.24569825855423685,0.1697885281704281,0.43366076454407054
0.0,-0.06093749418250766,-0.11816161016777216,-0.1109611377355778,-0.16513693823283926,-0.18554265411121232,-0.2047048967969571,-0.314105681704277
0.0,-0.03046874709125383,-0.05908080508388608,-0.0554805688677889,-0.052099722025165794,-0.01845614842609316,-0.07826897117125427,-0.13443695037834277
-0.06093749418250766,-0.17909910435027981,-0.19865400081209614,-0.24748601797578482,-0.3238110814688949,-0.3040788455756526,-0.3160177897836165,-0.2662917104658546
0.03046874709125383,0.05908080508388608,-0.005456925314718759,-0.03559314105135253,-0.033424184225598556,-0.09232489237630373,-0.08669884478422207,-0.08141563443455341
0.2132812296387768,0.4440343826784564,0.4779135342496622,0.4792594281278355,0.48052330660563736,0.6035851558610661,1.0238353953059418,1.7841016033244939
0.03046874709125383,0.02861205799263225,0.08780600505766431,0.1433928213177813,0.1041860750116618,0.09783723667174035,0.1528127748137312,0.1435007472375066
0.0,-0.03046874709125383,-0.08954955217513991,-0.08409262686042115,-0.048499485809068626,-0.13695028994848538,-0.28094861790772596,-0.3552345544121518
-0.06093749418250766,-0.11816161016777216,-0.1109611377355778,-0.10419944405033159,-0.00644354976093249,-0.006050895984860971,-0.03615091663723838,-0.094885464547472
0.0,0.0,-0.06093749418250766,-0.0572241159852645,-0.1451432630240748,-0.319111078825438,-0.3301339964071929,-0.34048520501293533
0.0,-0.03046874709125383,0.032325436189875406,0.12176184638386933,0.1143419845782009,0.1073742705581504,0.13129989866191594,0.09283006475978775
0.0,-0.03046874709125383,-0.1809557934489014,-0.3832100304770947,-0.5426706540217411,-0.5400704112905275,-0.47669112665311264,-0.4171740168045817
-0.03046874709125383,-0.15048704635764756,-0.2936604783019548,-0.33670303879630464,-0.31618519932842215,-0.23598017140124372,-0.25206887817054713,-0.3585834207384535
-0.09140624127376148,-0.2381799094341659,-0.254134569679885,-0.26911699290969676,-0.3441239189936096,-0.32315386968187476,-0.3948679239018421,-0.5231493975424838
-0.06093749418250766,-0.0572241159852645,-0.023268274659059472,-0.05231911139863987,-0.049130915852151284,-0.07660574804448336,-0.10240633280992983,-0.06569720040881896
-0.03046874709125383,-0.15048704635764756,-0.23272298411944714,-0.21854142862853249,-0.26616155577535205,-0.34134857879244584,-0.3814851459405816,-0.44964463835287577
0.06093749418250766,0.11816161016777216,0.1414298848268316,0.07187400786045617,-0.023912055349175385,-0.14432990298045853,-0.25740978872224024,-0.24172388121945818
-0.06093749418250766,-0.20956785144153364,-0.22726605880472833,-0.24388578175968756,-0.3813677288087794,-0.44953437632685966,-0.483078372067112,-0.5755157749445924
0.0,0.0,0.03046874709125383,0.05908080508388608,0.0554805688677889,-0.03930651924859569,-0.15878626682556507,-0.24051647088838157
-0.06093749418250766,-0.11816161016777216,-0.20236737900933927,-0.31191060639324364,-0.3538410498132005,-0.33227886289867625,-0.3120306216238179,-0.26254751034259843
0.0,-0.03046874709125383,-0.02861205799263225,-0.02686851087515665,-0.14710619951502446,-0.22954815761162833,-0.21556006809256437,-0.2328931247884466
0.03046874709125383,0.12001829926639374,0.14317343194430723,0.10398005467685753,0.06717502360863586,0.09355029308952863,0.14878706683112125,0.2311265970854289
-0.03046874709125383,-0.05908080508388608,-0.11641806305029656,-0.26166757346669944,-0.3675971955958368,-0.37566549071896316,-0.29183588288119977,-0.24358338837462581
-0.12187498836501531,-0.35819820870055963,-0.48871424289795373,-0.5808082099294664,-0.6672902013807521,-0.6875647027985757,-0.6151974856304361,-0.6081776395199918
-0.12187498836501531,-0.2058544732442905,-0.10190397620476185,-0.034756709065102115,-0.03263872230864434,-0.182993535814106,-0.32418610374626655,-0.27396226784392474
0.06093749418250766,0.08769286307651833,0.021411585560437887,0.020106817189910437,0.07981905231687918,0.13589257346317374,0.34089285019709237,0.8076196475814097
-0.09140624127376148,-0.17724241525165824,-0.1969104536946205,-0.30678621243314497,-0.3794976706714881,-0.2954345393901614,-0.2774314988647616,-0.44333800106416876
0.0,-0.03046874709125383,-0.05908080508388608,-0.1468868101415504,-0.29027963145933167,-0.42493445356224735,-0.5818524953178738,-0.8815520802731553
0.03046874709125383,-0.0018566890986215778,-0.15408728257374474,-0.23610383096207024,-0.16077876095384364,-0.09004381196104033,-0.11502551478474744,-0.26035988360298107
-0.06093749418250766,-0.11816161016777216,-0.23283612610059312,-0.3405226643858759,-0.3807095606883572,-0.4489163153224469,-0.45202922706030635,-0.3635462044834878
-0.03046874709125383,-0.15048704635764756,-0.2022542370281933,-0.12899187645339258,-0.12113143473242322,-0.14421873572435118,-0.13543040735513992,-0.1881151118773091
-0.03046874709125383,-0.08954955217513991,-0.1450301210429288,-0.28853608434185607,-0.42329715383709976,-0.4889087272614409,-0.5809908429031849,-0.6065242109761895
0.03046874709125383,0.05908080508388608,0.0554805688677889,0.021630974933911966,-0.16249964502280823,-0.42681604767085574,-0.5531506827051812,-0.6717868016520532
-0.06093749418250766,-0.11816161016777216,-0.08049239064432397,-0.07558738605769934,-0.10145002725079115,-0.12573666389663463,-0.057137092489397884,0.09868843420804935
-0.06093749418250766,-0.14863035725902599,-0.26144818409322534,-0.39785992235228634,-0.4345528298309986,-0.4690097634736875,-0.5623044721054857,-0.5585077936990134
-0.03046874709125383,0.0018566890986215778,0.032212294208729425,-0.061156883555981735,-0.11836763050257645,-0.11115460370742848,-0.2262561090556634,-0.3343436170913424
-0.03046874709125383,-0.15048704635764756,-0.32412922539320865,-0.4567213380626984,-0.6117023667289985,-0.6963017456800392,-0.623402115012138,-0.6463510464377306
0.0,-0.06093749418250766,-0.24003659853278747,-0.3168156109798683,-0.2365721673463473,-0.22215605227493604,-0.26955591331433093,-0.2531298514148783
-0.06093749418250766,-0.11816161016777216,-0.17189863191808546,-0.2528298013093576,-0.2678917338541579,-0.16016084160711672,-0.02852605288840218,-0.026787746706465266
-0.03046874709125383,-0.12001829926639374,-0.2041109261268149,-0.19167291775337586,-0.14952410335158142,-0.26228746753846505,-0.3681793148762105,-0.3152746429265679
0.03046874709125383,0.02861205799263225,-0.034068983307351,-0.09293039901776301,-0.20914244173325527,-0.28780406668058106,-0.3007347551327849,-0.37381497401516445
0.0,0.0,0.03046874709125383,-0.032325436189875406,-0.12176184638386933,-0.14481073166945474,-0.22739256982454414,-0.39634831897123846
0.03046874709125383,0.05908080508388608,-0.06639441949722641,-0.18422349831037851,-0.14252863286255477,-0.13384329512665205,-0.18662471429101168,-0.20572101894084482
-0.03046874709125383,-0.08954955217513991,-0.17549886813418264,-0.22574190106072686,-0.2424545023693444,-0.2581486796329435,-0.30335524015209664,-0.34580702615260267
0.03046874709125383,0.02861205799263225,0.02686851087515665,0.025231211150009147,-0.006775062723915988,-0.006362207378591233,0.024494236687783406,0.053470366373370465
0.0,-0.03046874709125383,-0.05908080508388608,-0.0554805688677889,-0.021630974933911966,0.010155909566539095,0.009537033886410045,0.03942461803069238
0.0,-0.03046874709125383,-0.12001829926639374,-0.1127046848530534,0.04650699168079005,0.22648545469331893,0.27362149279802983,0.226478937581187
0.03046874709125383,0.08954955217513991,0.1450301210429288,0.13619234888558696,0.09742438132641562,0.12195633074735658,0.11452461755191953,0.04660828015358785
-0.03046874709125383,-0.05908080508388608,-0.02501182177653507,0.06791857724122793,0.06377978933570641,-0.0010442853884074232,-0.000980649253626468,0.06001660323706913
-0.06093749418250766,-0.20956785144153364,-0.2577348058959822,-0.242029092661066,-0.19681169914378088,-0.12388099318964962,-0.2382069842528474,-0.3455662359007221
-0.03046874709125383,-0.12001829926639374,-0.14317343194430723,0.017894933688157783,0.1082107025444008,0.010210372213854818,-0.020880569374782026,-0.0196081597999788
-0.06093749418250766,-0.11816161016777216,-0.1414298848268316,-0.19374899622547148,-0.18194241789511512,-0.14038655577182632,-0.16230049793743218,-0.18287905937980561
-0.09140624127376148,-0.2381799094341659,-0.3760095580449003,-0.5663777074277487,-0.592801563358776,-0.4348027331752038,-0.3473694499692937,-0.41760786740637046
0.03046874709125383,0.15048704635764756,0.26319173121070094,0.2166847395299109,0.05113677901909963,-0.1347918507024119,-0.24845296144939955,-0.26378160764770375
-0.09140624127376148,-0.20771116234291206,-0.2864600058697604,-0.3299413451110584,-0.40124178758654594,-0.40725986558096566,-0.29103622861759526,-0.30376995722056543
-0.06093749418250766,-0.11816161016777216,-0.17189863191808546,-0.19189230712684993,-0.27160511205140103,-0.4683354067546063,-0.5616712089950504,-0.5274443729644325
-0.03046874709125383,-0.02861205799263225,-0.05733725796641048,-0.08431201623389523,-0.01823675905261908,0.013343290437311518,-0.10934480461110298,-0.3159628358550033
0.0,-0.06093749418250766,-0.17909910435027981,-0.3814664833596191,-0.5410333542965936,-0.5994703786903637,-0.5934089030675879,-0.6791230398540737
0.0,-0.03046874709125383,-0.08954955217513991,-0.08409262686042115,-0.10943697999157628,-0.2551119001162575,-0.36144100855204986,-0.3698844462873434
0.03046874709125383,-0.0018566890986215778,-0.06268104129998325,-0.058861415710412,-0.17714953689799992,-0.28822947638885943,-0.3316029885306937,-0.3418646804374562
-0.06093749418250766,-0.08769286307651833,-0.051880332651691716,-0.07918762227379651,-0.10483087409341425,-0.1593802374957073,-0.27154299356552125,-0.4682770736135984
0.0,0.0,0.06093749418250766,0.026755368894010673,-0.09675002460733426,-0.09085432054566735,-0.20719287428097538,-0.3773795422573444
-0.06093749418250766,-0.24003659853278747,-0.3777531051623759,-0.4156712716966271,-0.4817475472695398,-0.604734794366634,-0.628821265535465,-0.5295649791425528
-0.03046874709125383,-0.08954955217513991,-0.1450301210429288,-0.1971298430680946,-0.27652348567669544,-0.3815478257419604,-0.5106409927867304,-0.5404613044419467
0.0,-0.03046874709125383,-0.08954955217513991,-0.1450301210429288,-0.13619234888558696,-0.15836187550892328,-0.24011794091512875,-0.3168919965612588
-0.18281248254752297,-0.3544848305033165,-0.3024146661154795,-0.2230487799758548,-0.27039424042616833,-0.3148545871557228,-0.20426189630882358,-0.06993969982578133
0.03046874709125383,0.08954955217513991,0.023155132677913498,-0.10013087144995736,-0.18543538832724765,-0.2350729146123326,-0.2816856544281861,-0.4778016661389495
0.06093749418250766,0.11816161016777216,0.1109611377355778,-0.017675544314683725,-0.2298796705746118,-0.33774636785130996,-0.4085711917989691,-0.47508012844934067
-0.06093749418250766,-0.08769286307651833,-0.051880332651691716,-0.048718875182542684,-0.015281321918274339,-0.10575635772653996,-0.3430618070228464,-0.44403146851816644
-0.12187498836501531,-0.29726071451805197,-0.3400838856389278,-0.3498287729274948,-0.38944857829485946,-0.48759154618564593,-0.5797539275415334,-0.574893923045939
-0.12187498836501531,-0.2058544732442905,-0.19331021747852334,-0.3643428597730295,-0.6163594426964567,-0.7616125252903307,-0.7456705135523801,-0.6697624738794606
-0.09140624127376148,-0.11630492106915058,-0.139686337709356,-0.13117420231781632,-0.001305786762163988,0.059711278793566636,-0.004864871093054085,-0.18738090058664542
0.0,-0.03046874709125383,-0.02861205799263225,-0.08780600505766431,-0.2652678096827966,-0.523321777894729,-0.73518183682872,-0.8427254333801537
-0.03046874709125383,-0.08954955217513991,-0.20596761522543647,-0.2543539590533591,-0.36072925451826254,-0.5215598002171186,-0.5202460000168119,-0.4885435124173145
-0.12187498836501531,-0.23632322033554432,-0.16098478128864793,-0.05976853084163719,-0.08659513343243172,-0.1422557371751671,-0.133587029018627,-0.15591531730619976
0.0,0.0,-0.06093749418250766,-0.14863035725902599,-0.26144818409322534,-0.3673911752610325,-0.3450032776558587,-0.2935108953395049
0.0,0.03046874709125383,0.05908080508388608,-0.03592567240597259,-0.21654893450025392,-0.3556967205201856,-0.39495894786525737,-0.37089113927738887
-0.03046874709125383,-0.12001829926639374,-0.08223593776179958,0.01418155549091464,-0.04762012714681954,-0.04471827592583995,0.018944237935750355,0.017789823546748525
0.0,0.0,-0.09140624127376148,-0.2381799094341659,-0.3150720638623926,-0.35680985598621495,-0.3350667574627936,-0.13183614633162985
-0.03046874709125383,-0.05908080508388608,-0.02501182177653507,-0.05395641112378737,-0.14207468390858408,-0.16388575577567693,-0.15389896848650075,-0.20545824517216832
-0.03046874709125383,-0.05908080508388608,-0.08594931595904273,-0.11118052710905188,-0.07393671729388206,-0.0694311990139124,-0.21754397118418672,-0.2956936279794722
-0.12187498836501531,-0.29726071451805197,-0.3400838856389278,-0.38029752001874867,-0.4485293833787456,-0.4821346208709272,-0.544160786490181,-0.5719384859115944
-0.06093749418250766,-0.14863035725902599,-0.26144818409322534,-0.3673911752610325,-0.3450032776558587,-0.23257340115699726,-0.0965259725119714,-0.02970642744105459
-0.12187498836501531,-0.3277294616093058,-0.46010218490532157,-0.5539396990543097,-0.6725277373219969,-0.6924830764238703,-0.6198161458915519,-0.5515773560158073
0.03046874709125383,-0.0018566890986215778,-0.09314978839123708,-0.11794222079429807,-0.17169261158328114,-0.19169884115499922,-0.2104859412285768,-0.2281282025007146
-0.03046874709125383,-0.12001829926639374,-0.2041109261268149,-0.2221416648446297,-0.300011149709229,-0.37313546329289693,-0.28946002898669104,-0.3327585543367537
-0.03046874709125383,-0.08954955217513991,-0.08409262686042115,-0.1399057270828301,-0.2837239581088898,-0.3578407723359527,-0.36650359944472033,-0.3441697884856895
0.0,0.03046874709125383,-0.06279418328112923,-0.1808426514677554,-0.23076004762849744,-0.30810434984234214,-0.38073548408998054,-0.5098781531994422
0.03046874709125383,0.05908080508388608,0.11641806305029656,0.13979258510168413,0.0703364810777849,0.03558160508003548,-0.11893038422880262,-0.2335580529967519
0.0,0.0,0.06093749418250766,0.08769286307651833,0.051880332651691716,0.048718875182542684,-0.01518742517297949,-0.1361369299048691
0.0,-0.12187498836501531,-0.3277294616093058,-0.4905709319965754,-0.582551757046942,-0.6689275011058996,-0.9023834592200239,-1.3653631729747278
0.0,-0.03046874709125383,-0.15048704635764756,-0.26319173121070094,-0.3690284749861801,-0.49888453989479914,-0.5598900074209782,-0.6476467017159334
-0.06093749418250766,-0.20956785144153364,-0.1967973117134745,-0.09339873540204002,-0.08770725050682464,-0.14330008462180893,-0.31738021909633757,-0.4199148522065268
0.03046874709125383,0.02861205799263225,-0.034068983307351,-0.15386789320027067,-0.2663665577185198,-0.31107234133964057,-0.322585119440171,-0.2724588435096682
-0.09140624127376148,-0.29911740361667355,-0.4332336740301649,-0.4982397408130467,-0.5288157536882652,-0.5270597938655219,-0.6168170791080233,-0.6706360332119683
0.03046874709125383,0.05908080508388608,-0.005456925314718759,-0.2184056235988755,-0.4183777618201689,-0.48428911066692326,-0.5157152399855134,-0.5452263397315732
-0.06093749418250766,-0.14863035725902599,-0.23097943700197154,-0.30831037017714646,-0.3809289500618313,-0.3881848414747435,-0.42546732413814636,-0.5214153999136463
0.06093749418250766,0.0572241159852645,0.023268274659059472,0.0827878584898937,0.10821172093603736,0.1625550640035261,0.24405560701023554,0.2291834698778409
0.03046874709125383,0.02861205799263225,-0.06453773039860483,-0.1520112041016491,-0.20368551641853652,-0.16080468435546705,-0.09006815565552814,-0.08457962794424019
-0.09140624127376148,-0.20771116234291206,-0.1645850175047451,-0.15455561895802178,-0.2670123751919088,-0.4030850455882634,-0.46992829424143423,-0.4717607886361549
0.0,0.06093749418250766,0.08769286307651833,0.051880332651691716,-0.012218618999964972,-0.13334903534075165,-0.21662932054919307,-0.23389721967971985
-0.09140624127376148,-0.2686486565254197,-0.46555911022004026,-0.5590640930144084,-0.5554648751899477,-0.5825537317719804,-0.6384606084048887,-0.7518981542507246
-0.12187498836501531,-0.2667919674267981,-0.43334681601131075,-0.49834598820537473,-0.5289155266307413,-0.588090981077404,-0.5522541903392144,-0.6100074451019144
0.12187498836501531,0.17538572615303666,-0.018114323061631882,-0.07794797578795129,-0.1341355156493424,-0.27830536890106206,-0.44415861965021586,-0.5084989476229316
-0.03046874709125383,-0.08954955217513991,-0.17549886813418264,-0.2562106481519807,-0.36247280163573814,-0.43179085866850453,-0.46641609991284017,-0.4989313657202812
-0.03046874709125383,-0.08954955217513991,-0.023155132677913498,-0.021744116915057954,-0.11182532619080432,-0.07454222393534132,-0.06999980759793027,-0.06573419472965474
-0.06093749418250766,-0.14863035725902599,-0.23097943700197154,-0.399716611450908,-0.43629637694847423,-0.3487720748338197,-0.26658128437010503,-0.28080523599589013
-0.03046874709125383,-0.08954955217513991,-0.08409262686042115,-0.10943697999157628,-0.2246431530250037,-0.27189145637691003,-0.28579181942692233,-0.26837638209318604
0.06093749418250766,0.026755368894010673,-0.12721877169858808,-0.2718101139945688,-0.3771216751192933,-0.35414082523561385,-0.21068538239301485,0.015434486509675716
-0.15234373545626914,-0.38681026669319185,-0.5155827537731104,-0.5755706739882216,-0.60143433357295,-0.5343156852784341,-0.5017558263151569,-0.6235238190243069
0.0,-0.06093749418250766,-0.11816161016777216,-0.1109611377355778,-0.04326194986782393,0.05078056622433202,0.10862361994795999,0.22387935710431356
0.0,0.0,-0.06093749418250766,-0.11816161016777216,-0.1414298848268316,-0.19374899622547148,-0.27334865916887663,-0.4395039593884999
-0.03046874709125383,-0.08954955217513991,-0.17549886813418264,-0.22574190106072686,-0.3338607436431059,-0.4049223477933479,-0.3802473945803234,-0.3266073240939174
-0.06093749418250766,-0.14863035725902599,-0.20051068991071772,-0.27969831218451424,-0.3540604391866746,-0.42389112450724203,-0.458997755756073,-0.5529025710499185
0.03046874709125383,0.12001829926639374,0.14317343194430723,0.19538629595061902,0.21394869176904024,0.13997370042650156,0.16191280096231137,0.24345248186935847
-0.06093749418250766,-0.14863035725902599,-0.13957319572821006,-0.10059920783423443,-0.06400019710081706,-0.06010018546230667,-0.11737532494283738,-0.17116026094447093
-0.03046874709125383,-0.02861205799263225,-0.02686851087515665,-0.14710619951502446,-0.22954815761162833,-0.18509132100131054,-0.23474981388706817,-0.46419472519901084
0.0,-0.03046874709125383,-0.08954955217513991,-0.11456137395167498,-0.046642796710447035,0.017136992625259376,-0.10578228112816336,-0.25167990944357266
-0.03046874709125383,-0.08954955217513991,-0.17549886813418264,-0.19527315396947303,-0.18337369728545833,-0.14173061658264696,-0.07215641377665102,-0.03729063564065191
-0.03046874709125383,-0.15048704635764756,-0.2936604783019548,-0.4281092800700661,-0.49342761458008033,-0.4328906250958642,-0.40651135514742276,-0.4731458130817649
0.03046874709125383,0.02861205799263225,-0.034068983307351,-0.03199290483525535,0.030894156799532207,-0.0014572027919665942,-0.15371213996157754,-0.2357515486006496
-0.06093749418250766,-0.24003659853278747,-0.3777531051623759,-0.4766087658791348,-0.5389716632548044,-0.6280030690256936,-0.650671629842851,-0.6719588253670871
0.03046874709125383,0.08954955217513991,0.053623879769167326,0.0503561749076902,0.01681884870094566,-0.16701853234144765,-0.33965332404604265,-0.37989319577042524
-0.09140624127376148,-0.20771116234291206,-0.2559912587785066,-0.2099230458446647,-0.16666211436847733,-0.1565061427437038,-0.11650030348947882,-0.13986981401458215
-0.06093749418250766,-0.14863035725902599,-0.26144818409322534,-0.458797416534794,-0.6441206812725322,-0.7572133164609236,-0.8024768756679302,-0.8449821869990803
0.03046874709125383,0.08954955217513991,0.053623879769167326,-0.01058131927481746,-0.009936520193065014,-0.039799760642859575,-0.09831195714272778,-0.09232107282627186
-0.06093749418250766,-0.17909910435027981,-0.25959149499460377,-0.33517888105230315,-0.37569141412058665,-0.3832664678494492,-0.3903799167857769,-0.3970598899689296
0.03046874709125383,-0.0018566890986215778,-0.032212294208729425,0.061156883555981735,0.14883637759383028,0.17023540879131455,0.12939294246718316,0.12150806078833164
-0.06093749418250766,-0.17909910435027981,-0.2900602420858576,-0.33332219195368157,-0.2825416257293496,-0.17391800578138958,-0.041444889950837505,-0.03891934221056367
0.2132812296387768,0.4440343826784564,0.4474447871584084,0.3897098759526957,0.27455569138020103,0.2273562084426918,0.12209544953959678,0.023249017519805446
0.0,-0.03046874709125383,-0.05908080508388608,0.09686316658848024,0.2737730504855184,0.22662125972297592,0.12140528675321302,0.05306965861545576
-0.12187498836501531,-0.2058544732442905,-0.1628414703872695,-0.15291831923287427,-0.08266236586171449,0.01378111285085755,-0.07846491490708155,-0.22602719506766944
0.06093749418250766,0.17909910435027981,0.25959149499460377,0.2742413868697955,0.13565481558779918,-0.08589287858668829,-0.20253377016250843,-0.3120668580864845
0.06093749418250766,-0.0037133781972431557,-0.15583082969122034,-0.17680363650471007,-0.22696716011626575,-0.27407384429956816,-0.2878412180982395,-0.42264463100116123
-0.09140624127376148,-0.11630492106915058,0.043126144838166944,0.10143563982048481,0.0038481648352635817,-0.08779257396076011,-0.11291146158701273,-0.25837465550968486
-0.06093749418250766,-0.14863035725902599,-0.23097943700197154,-0.3387791172684003,-0.37907226096320973,-0.41691004144852173,-0.5438483236793925,-0.6630513050752822
-0.12187498836501531,-0.2667919674267981,-0.31147182764629544,-0.3229602620523381,-0.30327987296234254,-0.315267504559282,-0.3874621341080285,-0.42478865674738614
0.0,0.0,-0.06093749418250766,-0.17909910435027981,-0.22912274790334997,-0.18469183469465555,-0.14296843000113948,-0.13425629212966278
0.03046874709125383,0.15048704635764756,0.32412922539320865,0.33484634969768307,0.2535041580284389,0.17711875569083174,0.07491934127254718,-0.021052296924167463
0.03046874709125383,-0.0018566890986215778,-0.12361853548249091,-0.20749177296943797,-0.19484774426119464,-0.18297421097880334,-0.2022929681529874,-0.25090323576551016
-0.09140624127376148,-0.2381799094341659,-0.34554081095364647,-0.4158906610701011,-0.45148482051309013,-0.5153787081633447,-0.7581915449541371,-1.2604266997368367
-0.06093749418250766,-0.11816161016777216,-0.17189863191808546,-0.22236105421810376,-0.26974842295277945,-0.3142481241808615,-0.4169736193067416,-0.5743767743535009
-0.03046874709125383,-0.08954955217513991,-0.17549886813418264,-0.2866793952432345,-0.26920987126335505,-0.13092990793435538,-0.15342011452254317,-0.29641481264261516
-0.06093749418250766,-0.20956785144153364,-0.288203552987236,-0.27064115065369826,-0.2541489571101913,-0.2081930094235448,-0.22597499621421258,-0.30361088747077825
-0.06093749418250766,-0.14863035725902599,-0.26144818409322534,-0.39785992235228634,-0.52595907110476,-0.6462521787253457,-0.7287461787088523,-0.8062132010482721
0.18281248254752297,0.3849535775945703,0.36149547119936565,0.3089980959348976,0.2901685262614588,0.3638926246542158,0.34171791995629197,0.10761325655812001
0.03046874709125383,0.08954955217513991,0.053623879769167326,-0.01058131927481746,-0.009936520193065014,0.05160648063090191,0.10939920520018429,0.10273269176972709
-0.06093749418250766,-0.17909910435027981,-0.3205289891771115,-0.48380923831132916,-0.5457333569400505,-0.5429464807675696,-0.5403294298456366,-0.5378718554490342
-0.09140624127376148,-0.11630492106915058,-0.017811349344340713,-0.047194717438541166,-0.10525628380169263,-0.09884222961985462,-0.12328777891866247,-0.17671242479053983
-0.03046874709125383,-0.08954955217513991,-0.1450301210429288,-0.13619234888558696,-0.036486887143907965,-0.0647322147620921,-0.24360007834912925,-0.32016194126563224
0.0,-0.06093749418250766,-0.14863035725902599,-0.10910444863695623,0.019419091432159308,-0.04270175352152514,-0.16197460402973962,-0.12163553044770956
0.03046874709125383,-0.0018566890986215778,-0.12361853548249091,-0.20749177296943797,-0.3776602268087176,-0.689802776938389,-0.8610491538704049,-0.8999852173393355
0.0,-0.06093749418250766,-0.14863035725902599,-0.1700419428194639,-0.12921126582686668,-0.12133745506722753,-0.17488094878745572,-0.10328664780558106
-0.15234373545626914,-0.26493527832817654,-0.24879078634631221,-0.29456759343317995,-0.2766173824219903,-0.25976101228986975,-0.15252558584085202,-0.3260435413885145
-0.06093749418250766,-0.11816161016777216,-0.08049239064432397,-0.014649891875191681,-0.01375716417427282,-0.07385633124494292,-0.06935571148936286,-0.06512934822395612
-0.03046874709125383,-0.12001829926639374,-0.2041109261268149,-0.2221416648446297,-0.2086049084354675,-0.10448680676747715,-0.03718214840542755,-0.09585385563578633
-0.06093749418250766,-0.11816161016777216,-0.1109611377355778,-0.1346681911415854,-0.24833683739234153,-0.3855475482647125,-0.4839282351502668,-0.5458451024098077
0.06093749418250766,0.11816161016777216,0.1414298848268316,0.10234275495171,0.035168749734710694,0.06349440134359952,0.12056270581360977,0.11321591662946554
-0.12187498836501531,-0.29726071451805197,-0.40102137982143543,-0.4984591301865208,-0.5290217740230695,-0.5272532598373726,-0.5865300086570859,-0.5812570867579324
-0.06093749418250766,-0.17909910435027981,-0.25959149499460377,-0.21330389268728783,-0.13936819378504234,-0.16134419237829353,-0.33432476414138285,-0.49676433331897196
-0.06093749418250766,-0.20956785144153364,-0.3796097942609975,-0.4783523129966103,-0.47967146879744404,-0.4809102385493387,-0.5125422678679376,-0.45084047931019194
0.03046874709125383,-0.032325436189875406,-0.182699340566377,-0.17156610056346538,-0.13064254521720986,-0.12268151587804813,-0.08473686462667451,-0.14051070661395026
0.0,0.03046874709125383,0.02861205799263225,0.02686851087515665,0.11663745242377063,0.20093609961899608,0.24962905139991537,0.2039485354411943
-0.03046874709125383,-0.1809557934489014,-0.3527412833858409,-0.39218360766409355,-0.42922241553609564,-0.46400417126887056,-0.5271351610552759,-0.5559503594275824
0.03046874709125383,-0.06279418328112923,-0.1808426514677554,-0.1698225534459898,-0.22041148676582384,-0.23744891016452738,-0.2229793685827337,-0.23986031169815797
-0.12187498836501531,-0.35819820870055963,-0.45824549580669993,-0.43032116357181877,-0.5259734585350664,-0.6462656894217015,-0.6678213719147198,-0.7490009993137275
0.0,0.03046874709125383,-0.0018566890986215778,-0.12361853548249091,-0.20749177296943797,-0.2862539855349561,-0.3906853733217154,-0.42781547984024015
-0.03046874709125383,-0.15048704635764756,-0.2022542370281933,-0.1594606235446464,-0.11927474563380164,-0.08153769442436794,-0.13750648582723557,-0.19006467932958898
-0.03046874709125383,-0.05908080508388608,-0.11641806305029656,-0.17026133219293796,-0.25129227452668623,-0.3883228884658763,-0.42559695889156,-0.46059964086752025
-0.03046874709125383,0.0018566890986215778,0.032212294208729425,-0.030688136464727907,-0.0897555725099442,-0.1756923341060333,-0.1649860835185357,-0.09399475083142253
0.0,-0.09140624127376148,-0.20771116234291206,-0.2864600058697604,-0.39087883929356604,-0.4889346506630643,-0.5200776924151651,-0.4579167139679101
0.06093749418250766,0.17909910435027981,0.19865400081209614,0.217017270884531,0.23426152929375502,0.18951747162397764,0.1475000047081541,0.07757422984682344
0.03046874709125383,0.08954955217513991,0.1450301210429288,0.16666109597684078,0.06509894513654021,0.061131978545994906,0.14881299023274464,0.13974469950615517
0.09140624127376148,0.17724241525165824,0.10550421242085903,0.09907505009023287,0.18444390607548913,0.2646105978957765,0.3703608794908881,0.5001357510077528
0.0,-0.03046874709125383,-0.12001829926639374,-0.17364217903556106,-0.1630608597607436,-0.12265559247642477,-0.05424377384093294,-0.08140704127931767
-0.09140624127376148,-0.2381799094341659,-0.34554081095364647,-0.3549531668875935,-0.3942607045278258,-0.4616416864130315,-0.494447893015342,-0.7080674541411971
0.09140624127376148,0.2381799094341659,0.254134569679885,0.2081794987271891,0.19549356173458365,0.18358067395366476,0.14192498061133862,0.10280768083972883
-0.03046874709125383,-0.12001829926639374,-0.1127046848530534,0.04650699168079005,0.13507921341955745,0.0659103304551178,-0.09044981537982724,-0.20681301864632542
0.03046874709125383,0.05908080508388608,0.08594931595904273,0.11118052710905188,0.0129992231113744,-0.26201164079263656,-0.5202640317773705,-0.5799666866413304
-0.06093749418250766,-0.14863035725902599,-0.20051068991071772,-0.3406358063670219,-0.441753302263193,-0.4148339629764261,-0.38955502077084353,-0.3353477668675997
-0.06093749418250766,-0.17909910435027981,-0.2900602420858576,-0.33332219195368157,-0.25207287863809574,-0.20624344197126498,-0.19367548342596067,-0.24281087896390446
-0.03046874709125383,0.0018566890986215778,-0.08966269415628589,-0.2365426097090184,-0.3440032841709752,-0.5363218156818197,-0.5341084552500106,-0.41015498309162335
-0.06093749418250766,-0.20956785144153364,-0.22726605880472833,-0.21341703466843373,-0.23088068245113183,-0.09493640384239727,-0.058682470194289155,-0.20745024296447862
0.06093749418250766,0.08769286307651833,0.08234907974294554,0.13826842735768258,0.16031144296120314,0.028667476973350092,-0.12542318269420974,-0.1787177024109374
0.03046874709125383,0.02861205799263225,-0.1254752245811125,-0.30064156136067505,-0.3432587121467465,-0.3832788805547167,-0.42086032018314323,-0.3952141468703346
-0.03046874709125383,0.032325436189875406,0.15223059347512316,0.14295404257083313,0.13424278143330703,0.12606236272067123,0.08791169113449332,-0.0393204153976046
-0.03046874709125383,-0.05908080508388608,-0.17735555723280422,-0.2884229423607101,-0.20990967680599493,-0.10571206582301607,-0.16020773160941282,-0.27232006226148675
0.06093749418250766,0.026755368894010673,-0.0358125304248266,-0.0031614574691490177,-0.002968806173014504,-0.09419413583787892,-0.1798604225069933,-0.2603064203305715
0.03046874709125383,0.02861205799263225,-0.06453773039860483,-0.060604962827887604,0.0649631401068832,0.0914731962257964,0.024961554680423895,-0.0984345282777161
-0.09140624127376148,-0.11630492106915058,-0.139686337709356,-0.3444554319565931,-0.5062776636231281,-0.505895118532614,-0.4141296435075662,-0.44983111494802763
0.03046874709125383,-0.032325436189875406,-0.15223059347512316,-0.08201654838832548,-0.016081171265534877,-0.13697621335010873,-0.22003546741970603,-0.14568956322136467
-0.09140624127376148,-0.20771116234291206,-0.19505376459599894,-0.21363642404190786,-0.38343043824220535,-0.4819401365074399,-0.42210316515144697,-0.3659125088893588
0.0,-0.09140624127376148,-0.17724241525165824,-0.13597295951211286,-0.2190933493566266,-0.2971485909285425,-0.2790411003974941,-0.26203703496534125
0.06093749418250766,0.0572241159852645,-0.037669219523448184,-0.09631124586038611,-0.2732547624235817,-0.43941578447557517,-0.4735763818479004,-0.4751865709253248
-0.06093749418250766,-0.14863035725902599,-0.13957319572821006,-0.16153670201674208,-0.24309930145109687,-0.25875418627440283,-0.30392384873611455,-0.31587223806308606
-0.03046874709125383,-0.15048704635764756,-0.26319173121070094,-0.3690284749861801,-0.49888453989479914,-0.49895251323847056,-0.46854759736565366,-0.5314017221507177
0.06093749418250766,0.08769286307651833,-0.009057161530815941,-0.13038022916773712,-0.18337267889382175,-0.17219840734049863,-0.10076757371244224,-0.09462705027555487
-0.06093749418250766,-0.11816161016777216,-0.17189863191808546,-0.22236105421810376,-0.2392796758615256,-0.31610481327948303,-0.3577796722417095,-0.4273837168196223
-0.03046874709125383,-0.08954955217513991,-0.1450301210429288,-0.1971298430680946,-0.2460547385854416,-0.32246702065807425,-0.4551604239189414,-0.64070531787305
-0.09140624127376148,-0.1467736681604044,-0.07689215442822678,-0.07220653921507622,-0.12874394783422616,-0.18183610844455259,-0.3230992071003119,-0.4862228335947868
-0.09140624127376148,-0.17724241525165824,-0.16644170660336668,-0.1867679131667512,-0.1753867445446732,-0.1342303687280394,-0.06511321223205097,0.030260865033305516
-0.06093749418250766,-0.20956785144153364,-0.3186723000784898,-0.390659449920092,-0.48872863032826,-0.5198842264433143,-0.39679754314508586,-0.31168020098554117
-0.09140624127376148,-0.20771116234291206,-0.22552251168725276,-0.3031859762170478,-0.49799181219388033,-0.6199891744916484,-0.6431460819603534,-0.725829359697407
0.0,-0.12187498836501531,-0.3277294616093058,-0.3991646907228139,-0.34437184761277617,-0.2929179430609994,-0.33600575179227526,-0.3155304032471444
0.03046874709125383,0.08954955217513991,0.11456137395167498,0.07711154380170086,-0.018993681723880954,-0.20064873690185053,-0.3407654411204356,-0.38093754321706697
-0.03046874709125383,-0.08954955217513991,-0.20596761522543647,-0.3152914532358667,-0.3265471292297655,-0.2761794183507582,-0.2898184837429344,-0.3026264186671199
-0.09140624127376148,-0.2381799094341659,-0.3150720638623926,-0.35680985598621495,-0.42647299873655503,-0.5223597912220649,-0.5819347357570558,-0.6683480795472764
0.03046874709125383,0.12001829926639374,0.2041109261268149,0.16120417066212203,0.029505804085187687,-0.06369844695336513,-0.059816823212709674,0.06570325246884623
-0.03046874709125383,-0.12001829926639374,-0.23457967321806872,-0.31169121701976954,-0.38410377656965006,-0.4216349491019654,-0.3959415718439225,-0.3413451375218166
0.0,-0.03046874709125383,-0.08954955217513991,-0.08409262686042115,-0.048499485809068626,-0.04554404867472389,-0.10370620265606771,-0.1887928478087851
-0.06093749418250766,-0.24003659853278747,-0.3168156109798683,-0.3279784086201088,-0.46033596170910196,-0.49322173590296214,-0.49363478633194285,-0.5549601606853182
-0.03046874709125383,0.0018566890986215778,0.032212294208729425,-0.09162563064723556,-0.14697968849520868,-0.16849186167383892,-0.24963063110705094,-0.295356260158697
0.09140624127376148,0.1467736681604044,0.16829839570198826,0.21898020737548063,0.14469860807994528,0.044474796218095164,-0.04964162769147471,-0.04661659129281526
0.0,-0.09140624127376148,-0.20771116234291206,-0.2559912587785066,-0.27086054002717236,-0.2238862303537418,-0.17977441740276326,-0.16881941488811866
-0.03046874709125383,-0.02861205799263225,-0.02686851087515665,-0.14710619951502446,-0.35142314597664365,-0.5128207826106164,-0.633914504609882,-0.7171603315380254
0.03046874709125383,-0.032325436189875406,-0.15223059347512316,-0.1124852954795793,0.04671301201559436,0.13527267939140813,-0.025314234178327177,-0.23705287781912754
0.06093749418250766,0.11816161016777216,0.1414298848268316,0.04140526076920234,-0.08299286043306145,-0.1998104718482474,-0.5532594874774366,-1.2812639179592087
-0.06093749418250766,-0.17909910435027981,-0.2900602420858576,-0.424728433227443,-0.5207215351635154,-0.4280525754612745,-0.341030629951788,-0.4116553191968055
0.03046874709125383,0.12001829926639374,0.14317343194430723,0.012573813403096046,-0.23194238000803769,-0.46155836930565153,-0.4639009059524544,-0.2528194646471937
-0.03046874709125383,-0.08954955217513991,-0.08409262686042115,-0.048499485809068626,-0.015075301583470063,-0.04462539757218163,-0.07237478475848855,-0.03749569964205407
-0.15234373545626914,-0.32587277251068425,-0.39742114360533826,-0.5255470304351515,-0.7068027409641521,-0.8160756885047377,-1.0710335518965324,-1.7674861283399124
0.09140624127376148,0.17724241525165824,0.10550421242085903,0.00766880881647139,-0.023267256267422928,0.039088086208523734,0.06717490327384029,0.0021439388138724674
-0.12187498836501531,-0.3277294616093058,-0.3991646907228139,-0.34437184761277617,-0.35385543724350704,-0.5151048561425551,-0.605590645333002,-0.6600937101798026
-0.03046874709125383,-0.1809557934489014,-0.2918037892033332,-0.24355325040506756,-0.13730548435161644,-0.03753219092395191,-0.06571382034912066,-0.09217813189513958
0.0,-0.06093749418250766,-0.14863035725902599,-0.26144818409322534,-0.39785992235228634,-0.4345528298309986,-0.4994785105649413,-0.560447783006864
0.0,-0.06093749418250766,-0.11816161016777216,-0.1414298848268316,-0.19374899622547148,-0.30381740626013043,-0.37670977610737066,-0.4451602675910955
-0.06093749418250766,-0.026755368894010673,0.12721877169858808,0.2108726198120611,0.2284913178602673,0.21456762950740374,0.1405549216500342,-0.020353878526606722
0.18281248254752297,0.3544848305033165,0.3633521602979872,0.3412103901436271,0.28994913688798485,0.21134286886314246,0.07658917565626491,-0.049952965154747106
0.03046874709125383,0.15048704635764756,0.23272298411944714,0.18807268153727866,0.11567450941770446,0.1390943417642525,0.1915557753046813,0.24082034054393417
-0.15234373545626914,-0.2954040254194304,-0.2469340972476907,-0.20141780504194293,-0.1282064145364384,-0.08992508980521019,-0.14538277435085137,-0.16699225947586335
-0.12187498836501531,-0.23632322033554432,-0.2523910225624094,-0.35888593445831074,-0.4893600603713428,-0.6728209141780892,-0.875570870364523,-1.0659657522753423
0.12187498836501531,0.2667919674267981,0.28100308055504164,0.29434820405970585,0.3068801091784398,0.31864835140190506,0.5429806960721164,1.3020802374366074
-0.12187498836501531,-0.23632322033554432,-0.1305160341973941,-0.12256271412276643,-0.3588440261739486,-0.36744571750779975,-0.2536482549610194,-0.3600665542649444
-0.03046874709125383,-0.05908080508388608,-0.02501182177653507,-0.023487664032533544,0.008412362449063494,0.007899734161262537,-0.05351915002574041,-0.08072657422364793
-0.09140624127376148,-0.3295861507079274,-0.5227832262053047,-0.5823323676734679,-0.5163777453148262,-0.5153797265549813,-0.7277237541962853,-1.140409298527284
0.06093749418250766,0.08769286307651833,0.08234907974294554,0.016393438992667278,-0.106480524465595,-0.2523356035816916,-0.32836514548015416,-0.4302303847027342
0.0,-0.03046874709125383,-0.05908080508388608,-0.08594931595904273,-0.17211802129155954,-0.19209832746165423,-0.2717985780232517,-0.37711084212116125
-0.09140624127376148,-0.11630492106915058,-0.017811349344340713,0.01374277674396649,-0.0175634207251743,-0.1688368853331782,-0.3413608711629179,-0.3814966892447995
-0.15234373545626914,-0.35634151960193805,-0.4260332015979704,-0.5219467942190543,-0.6424843999390213,-0.664270504737893,-0.5933227776285623,-0.5266984272272187
0.0,-0.06093749418250766,-0.08769286307651833,-0.08234907974294554,-0.016393438992667278,0.07601177737434117,0.07137981013279018,0.15843634464183626
-0.03046874709125383,-0.08954955217513991,-0.2364363623166903,-0.37437225831975285,-0.41249644518880824,-0.4482974396423177,-0.4819168112045885,-0.5439562495991177
0.15234373545626914,0.2954040254194304,0.3383403385214522,0.37866022029360114,0.3860543624135666,0.5453416594973811,0.8167973762068186,1.5287424681272737
-0.03046874709125383,-0.1809557934489014,-0.3222725362945871,-0.3635715496714613,-0.3414164104784314,0.22782609769147955,0.640505405466335,0.44913087559059633
0.06093749418250766,0.17909910435027981,0.22912274790334997,0.27609807596841707,0.28974209816154395,-0.1240077714459025,-0.5125447607811319,-0.45084282031150297
-0.06093749418250766,-0.17909910435027981,-0.2900602420858576,-0.4551971803186969,-0.8844898111599399,-1.3790286660804625,-1.5082753444024497,-1.6296460540160824
-0.03046874709125383,-0.05908080508388608,-0.02501182177653507,-0.023487664032533544,-0.082993878824698,-0.04746769272538039,0.07729985788894486,0.10305814533978244
0.06093749418250766,0.0572241159852645,-0.09860671370595583,-0.30587909730191976,-0.4395833270458025,-0.47373371479372917,-0.5362718105781901,-0.5340614973320926
-0.09140624127376148,-0.2381799094341659,-0.2846033167711388,-0.20632280962856747,-0.10234377334334652,0.0562365352056487,0.14421586294247157,0.13542770963338938
-0.03046874709125383,-0.12001829926639374,-0.23457967321806872,-0.28122246992851574,-0.14221048893824106,-0.1335445380958754,-0.36915664531258296,-0.4380674056601749
-0.03046874709125383,-0.08954955217513991,-0.11456137395167498,-0.1989865321667162,-0.5524857566154555,-1.1281936008608593,-1.455538022057958,-1.458247423580144
-0.03046874709125383,-0.05908080508388608,-0.08594931595904273,-0.11118052710905188,-0.13487421147638973,-0.18759280918168458,-0.11522387928098773,-0.01679618353385509
0.03046874709125383,0.05908080508388608,-0.005456925314718759,-0.09653063523386018,-0.12111704730211688,-0.08326773084548779,-0.04772485689024643,-0.1362228649748975
-0.03046874709125383,-0.15048704635764756,-0.2936604783019548,-0.3671717858875585,-0.3752660044123083,-0.35239823445154034,-0.4527989574547389,-0.608019006166518
-0.3046874709125383,-0.6212767979301146,-0.6443552408530289,-0.605089847112079,-0.4768109468000307,-0.2649427999557249,-0.12692286125971028,-0.11918850014006944
0.24374997673003063,0.47264644067108863,0.3829070567598035,0.17676117766853888,-0.1386976764798692,-0.22165202890001132,-0.02533262713085288,0.15902356223508407
-0.03046874709125383,-0.02861205799263225,0.034068983307351,0.03199290483525535,0.060512084474229275,0.148230870952371,0.047791811842281345,-0.25980797232636743
0.03046874709125383,0.08954955217513991,0.023155132677913498,-0.0391933772674497,-0.006336283976967831,-0.005950166708982637,-0.06652507264227671,-0.06247120141514706
0.06093749418250766,0.17909910435027981,0.19865400081209614,0.15607977670202333,0.17703741330849052,0.1053117027824105,-0.022980716858257935,-0.02158032955839799
-0.09140624127376148,-0.20771116234291206,-0.31692875296101425,-0.480428391468706,-0.5730272775234855,-0.5990459253154875,-0.5930103148177739,-0.6178112463909065
-0.03046874709125383,-0.08954955217513991,-0.1450301210429288,-0.1971298430680946,-0.18511724440293395,-0.08243042212528681,0.04446766960844982,0.1331641625241367
-0.09140624127376148,-0.29911740361667355,-0.37229617984765717,-0.3191406364627669,-0.3301617528761691,-0.40144876425475245,-0.4074542296096574,-0.3521562427719269
-0.03046874709125383,-0.15048704635764756,-0.23272298411944714,-0.24901017571978631,-0.355711107950492,-0.3949724585616132,-0.37090382666576416,-0.3787706239773031
-0.03046874709125383,-0.08954955217513991,-0.11456137395167498,-0.16851778507546233,-0.3105924689840464,-0.47447822475972334,-0.6283771932462241,-0.7119604500533772
-0.09140624127376148,-0.20771116234291206,-0.2559912587785066,-0.33179803420968,-0.34204784052151394,-0.26026680804708724,-0.30534429512832567,-0.43908111437655056
0.03046874709125383,0.02861205799263225,-0.003600236216097178,-0.0033808468426231027,-0.033643573599072635,-0.09253091271110803,-0.05642356366481892,0.16029597655653913
0.0,-0.03046874709125383,-0.02861205799263225,-0.02686851087515665,-0.0861687053325168,-0.08091780035260233,-0.015049378181846651,0.016336440304813814
-0.03046874709125383,0.0018566890986215778,0.09314978839123708,0.08747347370304424,-0.009263181865620237,-0.06963620095708015,-0.15679898664012762,-0.3300565318514447
-0.09140624127376148,-0.20771116234291206,-0.19505376459599894,-0.09176143567689254,-0.025232229541645695,0.037242853481767695,0.09591086149689015,0.05959754684113028
-0.12187498836501531,-0.23632322033554432,-0.2523910225624094,-0.29794844027580303,-0.31026095602106285,-0.2304169366359624,-0.2163759059001572,-0.4164717300319083
-0.12187498836501531,-0.2058544732442905,-0.19331021747852334,-0.21199912431676035,-0.016267946364488056,0.41128584080001285,0.782316824455214,1.0088631213373809
0.0,-0.03046874709125383,-0.05908080508388608,-0.0554805688677889,0.06977526633984951,-0.4524453640981331,-1.2475306488193538,-1.415259233894455
-0.06093749418250766,-0.11816161016777216,-0.17189863191808546,-0.4661110309481344,-1.1384885758101677,-2.440205553951307,-3.1141617136671296,-2.8025175139921354
-0.03046874709125383,-0.05908080508388608,-0.08594931595904273,-0.2939930096565748,-0.45889029488845234,-0.2785829347570089,-0.2006692946084001,-0.5845347228218926
-0.12187498836501531,-0.38866695579181343,-0.5477950479818398,-0.5448825375234937,-0.4202725197892443,-0.2118496830119964,-0.19894009418588676,-0.2172859304450206
-0.15234373545626914,-0.4172790137844457,-0.5137260646744888,-0.48242088559698454,-0.4530233656873981,-0.24260477442875922,-0.10594605903334278,-0.1604274658598465
0.09140624127376148,0.1467736681604044,0.13782964861073443,0.15989940229159455,0.1806242804859179,0.35242997199211057,0.5137662551716229,0.5433961211684409
-0.18281248254752297,-0.445891071777078,-0.5405945755496454,-0.6295270851120089,-0.743509017481534,-0.6677326939628572,-0.5661052426265176,-0.744889437336054
0.39609371218629974,0.768050466090519,0.7517161423725094,0.7059084443197875,0.6324234055094136,0.5024788666415404,0.4109215694462308,0.416349785789888
0.09140624127376148,0.2381799094341659,0.3760095580449003,0.3226277306977181,0.21156136396144878,0.29007558584956605,0.33333660070687826,0.34349265063173984
0.06093749418250766,0.17909910435027981,0.25959149499460377,0.21330389268728783,0.13936819378504234,0.252750433652055,0.17641096138924894,-0.1694952985479311
-0.3046874709125383,-0.6822142921126223,-0.8234543452033087,-0.9256188362891906,-1.0520264263851216,-1.1707310546949568,-1.0993896378602017,-0.9105205998337713
-0.06093749418250766,-0.14863035725902599,-0.23097943700197154,-0.27784162308589266,-0.2913793978866914,-0.36502970879683,-0.4341919543143422,-0.468670878806728
-0.33515621800379214,-0.7717638442877622,-0.877078224972476,-0.8541000228318654,-0.8629908018417765,-0.8104023048749855,-0.9133621545924445,-1.2842666128879983
-0.12187498836501531,-0.2667919674267981,-0.25053433346378784,-0.23526739897581983,-0.2513995403106509,-0.2056111351942317,0.05066826889055623,0.4741431308273538
0.09140624127376148,0.1467736681604044,0.04642340733697295,-0.139218001325079,-0.28307814063550074,-0.29629681517858364,-0.3087099768185969,-0.2594292173108777
-0.09140624127376148,-0.20771116234291206,-0.31692875296101425,-0.4499596443774521,-0.48347772534834554,-0.4235470571813048,-0.367268413757047,-0.40582549111281574
-0.03046874709125383,-0.08954955217513991,-0.17549886813418264,-0.22574190106072686,-0.21198575527809058,-0.2600053687315651,-0.30509878726957224,-0.377913072969004
0.12187498836501531,0.2667919674267981,0.22006558637253398,0.05431160552691841,-0.07087299598393615,-0.1274916673859758,-0.1197226446463247,-0.11242704668467486
-0.18281248254752297,-0.3849535775945703,-0.39196421829061945,-0.4290163952012913,-0.5247481994795276,-0.736521335856493,-0.8744520537849683,-0.9430401252095801
0.03046874709125383,0.08954955217513991,0.053623879769167326,-0.04105006636607129,0.05285766308806422,0.17151163791614968,0.10012265429589429,-0.05832230482406814
-0.3046874709125383,-0.6212767979301146,-0.7052927350355366,-0.7841889514623589,-0.7973399359771421,-0.8096895324495615,-0.9736303109150557,-1.4017996729678175
-0.09140624127376148,-0.1467736681604044,-0.22923588988449592,-0.3676105646345066,-0.4366155392644245,-0.5623530178367753,-0.5585533811750849,-0.5245165377591081
-0.09140624127376148,-0.11630492106915058,-0.139686337709356,-0.3139866848653393,-0.35579061726548056,-0.2731721344131669,-0.16511946778777983,-0.09412000699753556
0.36562496509504594,0.891782143554156,1.0811891510992908,1.1371791818590025,1.1592885733537621,1.2409881681154387,1.591927918117897,2.683200956427515
-0.39609371218629974,-0.9813316957292958,-1.134813030868458,-1.0961291154929313,-1.151208742259319,-1.172463207498801,-1.161953731795146,-1.2130221713885514
-0.09140624127376148,-0.17724241525165824,-0.13597295951211286,-0.12768710808286513,-0.15037492276813813,-0.04980521051299819,0.07510478257791153,0.1314655795089992
0.06093749418250766,0.0572241159852645,0.023268274659059472,0.05231911139863987,0.07959966294340512,0.13568655312836947,0.06648066040395728,-0.05944549281767345
-0.03046874709125383,-0.12001829926639374,-0.17364217903556106,-0.19352960685199744,-0.12079890337780319,0.13031225582406564,0.33565258313165397,0.2847300087084713
-0.18281248254752297,-0.3544848305033165,-0.3633521602979872,-0.3412103901436271,-0.25948038979673105,-0.24366830505301793,-0.35069475749640344,-0.5426055273904072
0.12187498836501531,0.23632322033554432,0.1305160341973941,-0.09071851551601037,-0.6031590570558227,-1.2671852386241946,-1.4337161222474037,-1.2854115602060774
-0.03046874709125383,-0.12001829926639374,-0.23457967321806872,-0.28122246992851574,-0.23361673021200255,-0.46313068880380276,-0.6786586418791108,-0.6068341377464401
-0.06093749418250766,-0.11816161016777216,-0.1414298848268316,-0.10234275495171,-0.004700002643456866,0.026055150831540384,0.05493616232057286,-0.009349003933754013
-0.12187498836501531,-0.17538572615303666,-0.0732919182121296,-0.007888198189945461,-0.007407511158635194,0.053981378192008656,0.11162938245497703,0.07435822051977611
0.06093749418250766,0.08769286307651833,0.021411585560437887,-0.07129942408385105,-0.18882960420854056,-0.23826029548310504,-0.3151475513869423,-0.4482869847639381
0.12187498836501531,0.2667919674267981,0.28100308055504164,0.17247321569469057,0.07055688884289549,0.188132317204511,0.35948048776684244,0.581324624364856
-0.03046874709125383,-0.12001829926639374,-0.17364217903556106,-0.2544671010345051,-0.4217729960930984,-0.5179461949623516,-0.6387275871762504,-0.7521488640047596
-0.06093749418250766,-0.20956785144153364,-0.2577348058959822,-0.242029092661066,-0.25774919332628854,-0.24204260335742178,-0.3186993748971714,-0.5430286103234367
-0.06093749418250766,-0.14863035725902599,-0.13957319572821006,-0.009192966560472943,0.021835976877079694,-0.13183838829310585,-0.15427323436471735,0.15981526086943754
0.0,-0.03046874709125383,-0.05908080508388608,-0.11641806305029656,-0.2007300792841918,-0.18849809124555703,-0.2074802369981209,-0.2862431525368241
-0.03046874709125383,-0.05908080508388608,-0.17735555723280422,-0.34936043654321774,-0.4194775282475286,-0.33297812462774445,-0.2822185250040852,-0.3564270765522143
-0.15234373545626914,-0.38681026669319185,-0.5460515008643642,-0.5432452377983463,-0.601547475554096,-0.9609843919483159,-1.2680493762495306,-1.5259338427649842
-0.2742187238212844,-0.5621959928462285,-0.6498121661677476,-0.7625579765284469,-0.7465583513611737,-0.5791899678031843,-0.2392081115970726,-0.011350139049440516
-0.03046874709125383,-0.12001829926639374,-0.2041109261268149,-0.3135479061183912,-0.32490982950461805,-0.06136066192931017,-0.1794964853149733,-0.8998083494754034
0.09140624127376148,0.1467736681604044,0.13782964861073443,0.0989619081090869,0.0015251761356380594,-0.27278648809753914,-0.6522572752523284,-0.8562603280661719
-0.03046874709125383,-0.05908080508388608,-0.02501182177653507,-0.05395641112378737,-0.5686371431861377,-1.2652357507713665,-1.46235417839052,-1.3427732320608279
-0.2132812296387768,-0.5963781181347255,-0.7733175596690925,-0.7871310195580338,-0.7391652276328448,-0.6636536037828025,-0.6232122161630876,-0.5852352253661818
0.03046874709125383,-0.0018566890986215778,-0.06268104129998325,-0.028392668619158172,-0.02666249054035235,0.005431001913095368,-0.025368696825642897,-0.17616652746668163
0.03046874709125383,0.05908080508388608,0.08594931595904273,0.17211802129155954,0.2530358216441619,0.26808519982600854,0.19081126533868709,0.0573087166021386
0.03046874709125383,-0.0018566890986215778,-0.09314978839123708,-0.057004726611790416,0.06834398694950632,0.0032417814598537376,-0.2407057413090277,-0.5916627016933586
0.0,0.06093749418250766,0.17909910435027981,0.25959149499460377,0.21330389268728783,0.13936819378504234,0.1308754452870397,0.2143064648749891
-0.03046874709125383,-0.02861205799263225,-0.08780600505766431,-0.2652678096827966,-0.3709780424384599,-0.378840317226782,-0.294817243417168,-0.15497683099651605
0.12187498836501531,0.23632322033554432,0.19145352837990176,0.24072432429053858,0.37839892263576497,0.38580898758023463,0.2708925133702434,0.13251001404764395
-0.03046874709125383,-0.02861205799263225,0.06453773039860483,0.09107370991914143,0.11599265334201818,0.23079934006879063,0.3386099949910374,0.4398509387561474
-0.2132812296387768,-0.4440343826784564,-0.5388510284321699,-0.6583585324781154,-0.8315210428740027,-0.9941314638000123,-0.9335515835080512,-0.9376007835014663
-0.03046874709125383,-0.1809557934489014,-0.26133504211207936,-0.30634743368619677,-0.34861688291062565,-0.26643554945382775,-0.585355852712764,-1.128591928577206
0.06093749418250766,0.14863035725902599,0.23097943700197154,0.3692478643596542,0.5904968015033649,0.6154509002794718,1.0654468180841337,1.6708335948129447
0.03046874709125383,0.05908080508388608,0.02501182177653507,-0.03744983014997411,0.056238509930687325,0.8449989004315528,1.43335047376861,1.2850681934293329
0.24374997673003063,0.47264644067108863,0.32196956257729586,0.08906831459202055,-0.03823427367529178,-0.7062168088532155,-1.3639629092709715,-1.372252668695877
-0.3046874709125383,-0.8040892804776376,-0.9379025771738377,-0.9416866385160557,-1.0975838440985153,-1.274449811713978,-1.410069263365536,-1.4764869112885348
-0.2132812296387768,-0.4440343826784564,-0.4169760400671546,-0.3001603237775558,-0.15999431742852604,0.550536518457847,1.187300638574648,1.1149495128186178
0.0,0.0,-0.09140624127376148,-0.17724241525165824,-0.10550421242085903,-0.1295437971814867,-0.1216497227943599,-0.02283045224551343
0.3046874709125383,0.6517455450213685,0.6120298046631536,0.5137967478194636,0.4824872614882237,0.20933572006812035,-0.016701903794498596,0.44134707473962287
-0.03046874709125383,-0.05908080508388608,-0.0554805688677889,-0.14350596329892729,-0.22616731076900523,0.0008959880540312382,0.3969351009735009,0.6164968472971257
0.36562496509504594,0.7699071551891405,0.8448659307637465,0.762913170931578,0.6554856598336687,0.6460107533420911,0.6675819710009776,0.6878386927092661
-0.15234373545626914,-0.35634151960193805,-0.3041582132329551,-0.2246860797010023,-0.15005677884382435,0.011431040700286194,0.010734461724112493,-0.08132591074851445
-0.09140624127376148,-0.1467736681604044,-0.07689215442822678,-0.011269045032568564,0.08082390360730748,0.07589869745142963,-0.14200760862175357,-0.3771039975275243
-0.12187498836501531,-0.35819820870055963,-0.48871424289795373,-0.48940196865570484,-0.42911029194658623,-0.3420238918449293,-0.2907130658340965,-0.30346648716730606
0.06093749418250766,0.08769286307651833,-0.03952590862206977,-0.12852354006911554,-0.2425666259588538,-0.41059770614813856,-0.4160456579096392,-0.5430366135073821
-0.06093749418250766,-0.14863035725902599,-0.1700419428194639,-0.19014876000937433,-0.33090530650876115,-0.46308450177469174,-0.5872090280980561,-0.7647072110031916
0.0,0.03046874709125383,-0.0018566890986215778,-0.09314978839123708,-0.057004726611790416,0.06834398694950632,0.2774605052811382,0.5043027340847238
-0.15234373545626914,-0.38681026669319185,-0.48511400668185645,-0.5164898689043355,-0.545953764705161,-0.4517472161620143,-0.15000014898389308,-0.1408595157778118
-0.12187498836501531,-0.29726071451805197,-0.3705526327301816,-0.37844083092012704,-0.4163170891700161,-0.45188526315314737,-0.6071609901061145,-0.9053183388074695
0.06093749418250766,0.0572241159852645,-0.09860671370595583,-0.27541035021066596,-0.2890962806881549,-0.241010730674282,-0.3481991290409113,-0.23557450536686503
0.09140624127376148,0.1467736681604044,0.01595466024571912,-0.04595507095269594,-0.07362343117511314,-0.31288698049621405,-0.4766329144899666,-0.29524436357977346
-0.12187498836501531,-0.29726071451805197,-0.3705526327301816,-0.40890957801138084,-0.4449291471626483,-0.5092225211195578,-1.2094417068913248,-1.8669912901036443
0.24374997673003063,0.44217769357983483,0.3847637458584251,0.23944221896852214,0.011569980504304272,-0.01960381220662233,1.1089344373620653,2.0772961526391622
-0.18281248254752297,-0.3849535775945703,-0.4529017124731271,-0.4862405111865558,-0.39567273868231784,-0.18874895092316424,-0.23818455700683713,-0.5283576578624081
-0.45703120636880745,-1.0690245588058143,-1.2171621106114041,-1.295335037033122,-1.734369266300833,-2.5427435619629204,-3.027638829864526,-3.14782957719546
0.15234373545626914,0.23446653123692274,0.06783499289741085,-0.08864243704391471,-0.14417828323473553,-0.10492367284762105,-0.1899361284176233,-0.39164312633590315
0.18281248254752297,0.4763598188683318,0.5387378864510238,0.47543980253826423,0.47693643942820996,0.5697481162901428,0.44362285249445604,0.26424585204507856
-0.09140624127376148,-0.2686486565254197,-0.37415286894627875,-0.3513529306714963,-0.1775986280464258,-0.38005744232180216,-0.9358038888751213,-1.0920595744796022
0.5789061947338228,1.031129055320074,0.7245446577800617,0.4366427451815915,-0.2602776055703302,-1.4936355712364582,-2.2252733337673036,-2.3638894767576537
-0.18281248254752297,-0.445891071777078,-0.5405945755496454,-0.599058338020755,-0.6234907182151401,-0.34174677947102683,-0.01623411617258208,0.015223897278496622
0.18281248254752297,0.4763598188683318,0.6301441277247852,0.6831509648811761,0.7024589511154625,0.8424653454159364,0.8825338596044499,0.7982857105776838
0.09140624127376148,0.1467736681604044,0.1073609015194806,0.1312873442989623,0.1537557696107612,0.17485502538583228,0.2860747866586162,0.3905170943758599
0.03046874709125383,0.02861205799263225,-0.034068983307351,-0.09293039901776301,-0.11773620045949379,-0.14103039852017665,-0.22384260070455814,-0.2711396877088344
0.0,-0.12187498836501531,-0.23632322033554432,-0.2219222754711556,-0.20839888810066318,-0.16523083497813412,-0.03328709356786788,-0.092196155679731
-0.15234373545626914,-0.4172790137844457,-0.6356010530395041,-0.688275358841275,-0.6768023302571753,-0.7879034276506902,-0.9531717967506252,-1.2302441139349956
0.09140624127376148,0.1467736681604044,0.04642340733697295,-0.10874925423382517,-0.2239973355516147,-0.11894125794577945,0.4367441719109205,0.714817547388393
0.0,0.0,-0.06093749418250766,-0.14863035725902599,-0.1700419428194639,-0.12921126582686668,0.24428751002781846,0.7169011947667002
