0.5076858017924557,-0.1130324576995373,0.12496440594874467,0.5076935991153235,-0.11303170826712045,0.12497770588945137,0.9991169298701721,-0.011467740734830131,0.03129490495823708,0.02558281245084754,0.9991141284101087,-0.011467506705579163,0.03130835915751867,0.025581778987634914,-0.371,0.527,-3.971,3.0910697080247767,-0.06319001070708333,-0.021357094435067933,3.091067770949614,-0.0631632838459313,-0.02135821624052103,0.37099999999999994,-0.527,-3.971,0
0.5076858017924557,-0.1130324576995373,0.12546120594874466,0.5076935991153235,-0.11303170826712045,0.12497770588945137,0.9991169298701721,-0.011467740734830131,0.03129490495823708,0.02558281245084754,0.9991141284101087,-0.011467506705579163,0.03130835915751867,0.025581778987634914,-0.369,0.536,-3.968,3.0910697080247767,-0.06319001070708333,-0.021357094435067933,3.091067770949614,-0.0631632838459313,-0.02135821624052103,0.36899999999999994,-0.536,-3.968,0
0.5076858017924557,-0.1130324576995373,0.12595800594874465,0.5076935991153235,-0.11303170826712045,0.12497770588945137,0.9991169298701721,-0.011467740734830131,0.03129490495823708,0.02558281245084754,0.9991141284101087,-0.011467506705579163,0.03130835915751867,0.025581778987634914,-0.348,0.516,-3.983,3.0910697080247767,-0.06319001070708333,-0.021357094435067933,3.091067770949614,-0.0631632838459313,-0.02135821624052103,0.3479999999999999,-0.516,-3.983,0
0.5076858017924557,-0.1130324576995373,0.12645630594874466,0.507697897453941,-0.1130314549061393,0.12498397697903102,0.9991169298701721,-0.011467740734830131,0.03129490495823708,0.02558281245084754,0.9991139214645269,-0.011466724403230983,0.031314834218380265,0.02558228670855551,-0.36,0.545,-3.971,3.0910687592523076,-0.06320293381167062,-0.021355176548440807,3.091067770949614,-0.0631632838459313,-0.02135821624052103,0.35999999999999993,-0.545,-3.971,0
0.5076858017924557,-0.1130324576995373,0.12695340594874466,0.507697897453941,-0.1130314549061393,0.12498397697903102,0.9991169298701721,-0.011467740734830131,0.03129490495823708,0.02558281245084754,0.9991139214645269,-0.011466724403230983,0.031314834218380265,0.02558228670855551,-0.375,0.544,-3.955,3.0910687592523076,-0.06320293381167062,-0.021355176548440807,3.091067770949614,-0.0631632838459313,-0.02135821624052103,0.37499999999999994,-0.544,-3.955,0
0.5076858017924557,-0.1130324576995373,0.12744890594874464,0.5077191999469739,-0.11303568141230273,0.12500262276324448,0.9991169298701721,-0.011467740734830131,0.03129490495823708,0.02558281245084754,0.9991131456489717,-0.011466096783064584,0.03133633347451057,0.02558654116031646,-0.301,0.545,-3.884,3.0910605870704044,-0.06324599709391263,-0.021352590331705293,3.091067770949614,-0.0631632838459313,-0.02135821624052103,0.30099999999999993,-0.545,-3.884,0
0.5076858017924557,-0.1130324576995373,0.12793730594874464,0.5077191999469739,-0.11303568141230273,0.12500262276324448,0.9991169298701721,-0.011467740734830131,0.03129490495823708,0.02558281245084754,0.9991131456489717,-0.011466096783064584,0.03133633347451057,0.02558654116031646,-0.281,0.541,-3.811,3.0910605870704044,-0.06324599709391263,-0.021352590331705293,3.091067770949614,-0.0631632838459313,-0.02135821624052103,0.28099999999999997,-0.541,-3.811,0
0.5076858017924557,-0.1130324576995373,0.12841840594874462,0.5077927735538224,-0.11304947305477259,0.12507794134204278,0.9991169298701721,-0.011467740734830131,0.03129490495823708,0.02558281245084754,0.9991102635307214,-0.011468811585940276,0.031418398608506135,0.02559722573147743,-0.289,0.577,-3.71,3.091040846027928,-0.06341051448849801,-0.021353301994958822,3.091067770949614,-0.0631632838459313,-0.02135821624052103,0.2929999999999999,-0.577,-3.708,0
0.5076858017924557,-0.1130324576995373,0.12888940594874462,0.5077927735538224,-0.11304947305477259,0.12507794134204278,0.9991169298701721,-0.011467740734830131,0.03129490495823708,0.02558281245084754,0.9991102635307214,-0.011468811585940276,0.031418398608506135,0.02559722573147743,-0.261,0.579,-3.596,3.091040846027928,-0.06341051448849801,-0.021353301994958822,3.091067770949614,-0.0631632838459313,-0.02135821624052103,0.26099999999999995,-0.579,-3.596,0
0.5076858017924557,-0.1130324576995373,0.12935000594874463,0.5078670815950176,-0.11305708159267569,0.12517936296467277,0.9991169298701721,-0.011467740734830131,0.03129490495823708,0.02558281245084754,0.9991067754102161,-0.01147107494962525,0.03152432344424393,0.02560212623827388,-0.252,0.564,-3.487,3.0910330988061414,-0.06362261174239944,-0.021352298127305148,3.091067770949614,-0.0631632838459313,-0.02135821624052103,0.25199999999999995,-0.564,-3.487,0
0.5076858017924557,-0.1130324576995373,0.12979870594874462,0.5078670815950176,-0.11305708159267569,0.12517936296467277,0.9991169298701721,-0.011467740734830131,0.03129490495823708,0.02558281245084754,0.9991067754102161,-0.01147107494962525,0.03152432344424393,0.02560212623827388,-0.215,0.602,-3.312,3.0910330988061414,-0.06362261174239944,-0.021352298127305148,3.091067770949614,-0.0631632838459313,-0.02135821624052103,0.2149999999999999,-0.602,-3.312,0
0.5076858017924557,-0.1130324576995373,0.13022990594874462,0.5079539710258864,-0.11305903896159682,0.12533115886508878,0.9991169298701721,-0.011467740734830131,0.03129490495823708,0.02558281245084754,0.9991019529849567,-0.011469502036894562,0.03167844581159285,0.025600785211365083,-0.201,0.615,-3.18,3.0910384869146643,-0.06393079085288554,-0.021341632877508288,3.091067770949614,-0.0631632838459313,-0.02135821624052103,0.20099999999999993,-0.615,-3.18,0
0.5076858017924557,-0.1130324576995373,0.13064790594874462,0.5079539710258864,-0.11305903896159682,0.12533115886508878,0.9991169298701721,-0.011467740734830131,0.03129490495823708,0.02558281245084754,0.9991019529849567,-0.011469502036894562,0.03167844581159285,0.025600785211365083,-0.116,0.612,-3.012,3.0910384869146643,-0.06393079085288554,-0.021341632877508288,3.091067770949614,-0.0631632838459313,-0.02135821624052103,0.11599999999999994,-0.612,-3.012,0
0.5076858017924557,-0.1130324576995373,0.1310491059487446,0.5080577883381514,-0.11306429381789054,0.12552360412656524,0.9991169298701721,-0.011467740734830131,0.03129490495823708,0.02558281245084754,0.9990957786457297,-0.01147780812063426,0.031873068141475606,0.025596456925835266,-0.104,0.683,-2.853,3.0910512267156824,-0.06432041911028574,-0.02134894894563446,3.091067770949614,-0.0631632838459313,-0.02135821624052103,0.10399999999999991,-0.683,-2.853,0
0.5076858017924557,-0.1130324576995373,0.13143440594874461,0.5080577883381514,-0.11306429381789054,0.12552360412656524,0.9991169298701721,-0.011467740734830131,0.03129490495823708,0.02558281245084754,0.9990957786457297,-0.01147780812063426,0.031873068141475606,0.025596456925835266,-0.075,0.606,-2.701,3.0910512267156824,-0.06432041911028574,-0.02134894894563446,3.091067770949614,-0.0631632838459313,-0.02135821624052103,0.07499999999999993,-0.606,-2.701,0
0.5076858017924557,-0.1130324576995373,0.1318045059487446,0.5082496576204362,-0.11305423777098086,0.12598573705863264,0.9991169298701721,-0.011467740734830131,0.03129490495823708,0.02558281245084754,0.9990817859672547,-0.011492465903098069,0.03232849293277731,0.025564874063435727,-0.065,0.657,-2.497,3.091123720832225,-0.0652314755281455,-0.021357923970704046,3.091067770949614,-0.0631632838459313,-0.02135821624052103,0.06499999999999992,-0.657,-2.497,0
0.5076858017924557,-0.1130324576995373,0.1321542059487446,0.5082496576204362,-0.11305423777098086,0.12598573705863264,0.9991169298701721,-0.011467740734830131,0.03129490495823708,0.02558281245084754,0.9990817859672547,-0.011492465903098069,0.03232849293277731,0.025564874063435727,-0.035,0.621,-2.359,3.091123720832225,-0.0652314755281455,-0.021357923970704046,3.091067770949614,-0.0631632838459313,-0.02135821624052103,0.03499999999999993,-0.621,-2.359,0
0.5076858017924557,-0.1130324576995373,0.1324901059487446,0.5082496576204362,-0.11305423777098086,0.12598573705863264,0.9991169298701721,-0.011467740734830131,0.03129490495823708,0.02558281245084754,0.9990817859672547,-0.011492465903098069,0.03232849293277731,0.025564874063435727,-0.032,0.635,-2.238,3.091123720832225,-0.0652314755281455,-0.021357923970704046,3.091067770949614,-0.0631632838459313,-0.02135821624052103,0.031999999999999924,-0.635,-2.238,0
0.5076858017924557,-0.1130324576995373,0.1328139059487446,0.5084722792084909,-0.11303874567694044,0.1265495065271356,0.9991169298701721,-0.011467740734830131,0.03129490495823708,0.02558281245084754,0.9990647007335726,-0.011504196311963406,0.03288032202612031,0.025523473563098538,-0.016,0.635,-1.999,3.0912174393371705,-0.06633503097624226,-0.021357024861617686,3.091067770949614,-0.0631632838459313,-0.02135821624052103,0.015999999999999924,-0.635,-1.999,0
0.5076858017924557,-0.1130324576995373,0.1325138059487446,0.5084722792084909,-0.11303874567694044,0.1265495065271356,0.9991169298701721,-0.011467740734830131,0.03129490495823708,0.02558281245084754,0.9990647007335726,-0.011504196311963406,0.03288032202612031,0.025523473563098538,-0.026,0.651,-1.887,3.0912174393371705,-0.06633503097624226,-0.021357024861617686,3.091067770949614,-0.0631632838459313,-0.02135821624052103,0.02599999999999992,-0.651,-1.887,0
0.5076858017924557,-0.1130324576995373,0.1322025059487446,0.5084722792084909,-0.11303874567694044,0.1265495065271356,0.9991169298701721,-0.011467740734830131,0.03129490495823708,0.02558281245084754,0.9990647007335726,-0.011504196311963406,0.03288032202612031,0.025523473563098538,-0.026,0.615,-1.74,3.0912174393371705,-0.06633503097624226,-0.021357024861617686,3.091067770949614,-0.0631632838459313,-0.02135821624052103,0.025999999999999922,-0.615,-1.74,0
0.5076858017924557,-0.1130324576995373,0.13187650594874462,0.5085834991512335,-0.11303390452941642,0.12682799778943815,0.9991169298701721,-0.011467740734830131,0.03129490495823708,0.02558281245084754,0.9990559718223152,-0.011519233045743385,0.03315486037945792,0.025503210222630093,0.002,0.617,-1.558,3.091264008859205,-0.06688453465583853,-0.02137502383934478,3.091067770949614,-0.0631632838459313,-0.02135821624052103,-0.0020000000000000755,-0.617,-1.558,0
0.5076858017924557,-0.1130324576995373,0.13153230594874463,0.5085834991512335,-0.11303390452941642,0.12682799778943815,0.9991169298701721,-0.011467740734830131,0.03129490495823708,0.02558281245084754,0.9990559718223152,-0.011519233045743385,0.03315486037945792,0.025503210222630093,-0.015,0.613,-1.416,3.091264008859205,-0.06688453465583853,-0.02137502383934478,3.091067770949614,-0.0631632838459313,-0.02135821624052103,0.014999999999999925,-0.613,-1.416,0
0.5076858017924557,-0.1130324576995373,0.13117390594874465,0.5086990043100499,-0.1130268311829219,0.12711852321314074,0.9991169298701721,-0.011467740734830131,0.03129490495823708,0.02558281245084754,0.9990469041797477,-0.011525326669354071,0.03344059913578807,0.025482591803255825,-0.019,0.611,-1.334,3.0913108961010196,-0.06745599045158845,-0.021374613815323386,3.091067770949614,-0.0631632838459313,-0.02135821624052103,0.018999999999999923,-0.611,-1.334,0
0.5076858017924557,-0.1130324576995373,0.13080730594874465,0.5086990043100499,-0.1130268311829219,0.12711852321314074,0.9991169298701721,-0.011467740734830131,0.03129490495823708,0.02558281245084754,0.9990469041797477,-0.011525326669354071,0.03344059913578807,0.025482591803255825,0.02,0.604,-1.213,3.0913108961010196,-0.06745599045158845,-0.021374613815323386,3.091067770949614,-0.0631632838459313,-0.02135821624052103,-0.020000000000000073,-0.604,-1.213,0
0.5076858017924557,-0.1130324576995373,0.13042860594874467,0.508809477838793,-0.11301849122545046,0.1273960230456692,0.9991169298701721,-0.011467740734830131,0.03129490495823708,0.02558281245084754,0.9990382295342576,-0.011528091300490902,0.033711712760406826,0.02546420083195374,0.012,0.64,-1.14,3.091352826795235,-0.06799807569702365,-0.021368128052003783,3.091067770949614,-0.0631632838459313,-0.02135821624052103,-0.012000000000000078,-0.64,-1.14,0
0.5076858017924557,-0.1130324576995373,0.13004260594874467,0.508809477838793,-0.11301849122545046,0.1273960230456692,0.9991169298701721,-0.011467740734830131,0.03129490495823708,0.02558281245084754,0.9990382295342576,-0.011528091300490902,0.033711712760406826,0.02546420083195374,0.003,0.619,-1.081,3.091352826795235,-0.06799807569702365,-0.021368128052003783,3.091067770949614,-0.0631632838459313,-0.02135821624052103,-0.003000000000000076,-0.619,-1.081,0
0.5076858017924557,-0.1130324576995373,0.12964980594874467,0.5089838027610983,-0.1130051738205639,0.12786559217292498,0.9991169298701721,-0.011467740734830131,0.03129490495823708,0.02558281245084754,0.999023474975944,-0.01154644349026055,0.034168753230355633,0.025425547222501156,0.022,0.635,-1.002,3.091439777227692,-0.06891245287272003,-0.021385202349375132,3.091067770949614,-0.0631632838459313,-0.02135821624052103,-0.022000000000000075,-0.635,-1.002,0
0.5076858017924557,-0.1130324576995373,0.12925000594874467,0.5089838027610983,-0.1130051738205639,0.12786559217292498,0.9991169298701721,-0.011467740734830131,0.03129490495823708,0.02558281245084754,0.999023474975944,-0.01154644349026055,0.034168753230355633,0.025425547222501156,0.041,0.641,-0.957,3.091439777227692,-0.06891245287272003,-0.021385202349375132,3.091067770949614,-0.0631632838459313,-0.02135821624052103,-0.04100000000000008,-0.641,-0.957,0
0.5076858017924557,-0.1130324576995373,0.12884570594874467,0.5090517289619781,-0.11300062633435352,0.12804477084776467,0.9991169298701721,-0.011467740734830131,0.03129490495823708,0.02558281245084754,0.9990177388376368,-0.01155193621686826,0.03434488915108924,0.02541111774642223,0.041,0.621,-0.911,3.0914722438528925,-0.06926477315364303,-0.02138860803743143,3.091067770949614,-0.0631632838459313,-0.02135821624052103,-0.04100000000000008,-0.621,-0.911,0
0.5076858017924557,-0.1130324576995373,0.12843680594874468,0.5090926848219646,-0.11299474946870774,0.12816798207277053,0.9991169298701721,-0.011467740734830131,0.03129490495823708,0.02558281245084754,0.9990138805102357,-0.011558584519644503,0.0344639662346292,0.025398558245720553,0.046,0.619,-0.875,3.091500018060105,-0.06950304830003452,-0.02139699177817731,3.091067770949614,-0.0631632838459313,-0.02135821624052103,-0.046000000000000076,-0.619,-0.875,0
0.5076858017924557,-0.1130324576995373,0.1280243059487447,0.5090926848219646,-0.11299474946870774,0.12816798207277053,0.9991169298701721,-0.011467740734830131,0.03129490495823708,0.02558281245084754,0.9990138805102357,-0.011558584519644503,0.0344639662346292,0.025398558245720553,0.008,0.614,-0.904,3.091500018060105,-0.06950304830003452,-0.02139699177817731,3.091067770949614,-0.0631632838459313,-0.02135821624052103,-0.008000000000000075,-0.614,-0.904,0
0.5076858017924557,-0.1130324576995373,0.12761470594874472,0.5090926848219646,-0.11299474946870774,0.12816798207277053,0.9991169298701721,-0.011467740734830131,0.03129490495823708,0.02558281245084754,0.9990138805102357,-0.011558584519644503,0.0344639662346292,0.025398558245720553,0.027,0.613,-0.895,3.091500018060105,-0.06950304830003452,-0.02139699177817731,3.091067770949614,-0.0631632838459313,-0.02135821624052103,-0.027000000000000076,-0.613,-0.895,0
0.5076858017924557,-0.1130324576995373,0.1272042059487447,0.5090880491064818,-0.1129898519700998,0.12820248087626349,0.9991169298701721,-0.011467740734830131,0.03129490495823708,0.02558281245084754,0.9990130229482231,-0.011556228759945934,0.03449520472073522,0.02539095244447218,-0.03,0.604,-0.952,3.0915156589516277,-0.06956525937903558,-0.021391280346549114,3.091067770949614,-0.0631632838459313,-0.02135821624052103,0.029999999999999926,-0.604,-0.952,0
0.5076858017924557,-0.1130324576995373,0.12679940594874473,0.5090880491064818,-0.1129898519700998,0.12820248087626349,0.9991169298701721,-0.011467740734830131,0.03129490495823708,0.02558281245084754,0.9990130229482231,-0.011556228759945934,0.03449520472073522,0.02539095244447218,0.02,0.584,-1.022,3.0915156589516277,-0.06956525937903558,-0.021391280346549114,3.091067770949614,-0.0631632838459313,-0.02135821624052103,-0.020000000000000073,-0.584,-1.022,0
0.5076858017924557,-0.1130324576995373,0.12640160594874472,0.5090374647832585,-0.11298109841370597,0.1281684023829819,0.9991169298701721,-0.011467740734830131,0.03129490495823708,0.02558281245084754,0.9990146176193297,-0.011564578631168342,0.03445571056845782,0.025378029284072585,-0.067,0.573,-1.063,3.09154143031791,-0.0694863935099661,-0.02141083108812286,3.091067770949614,-0.0631632838459313,-0.02135821624052103,0.06699999999999993,-0.573,-1.063,0
0.5076858017924557,-0.1130324576995373,0.12600790594874473,0.5090374647832585,-0.11298109841370597,0.1281684023829819,0.9991169298701721,-0.011467740734830131,0.03129490495823708,0.02558281245084754,0.9990146176193297,-0.011564578631168342,0.03445571056845782,0.025378029284072585,-0.035,0.571,-1.083,3.09154143031791,-0.0694863935099661,-0.02141083108812286,3.091067770949614,-0.0631632838459313,-0.02135821624052103,0.034999999999999934,-0.571,-1.083,0
0.5076858017924557,-0.1130324576995373,0.12561620594874473,0.5089846395729428,-0.11296638107655332,0.12811791655869054,0.9991169298701721,-0.011467740734830131,0.03129490495823708,0.02558281245084754,0.9990167726742181,-0.011557411059843828,0.03440198830750314,0.025369340228091196,-0.065,0.575,-1.144,3.0915573796105935,-0.06937837823616524,-0.021399694684818064,3.091067770949614,-0.0631632838459313,-0.02135821624052103,0.06499999999999993,-0.575,-1.144,0
0.5076858017924557,-0.1130324576995373,0.12523060594874474,0.5089846395729428,-0.11296638107655332,0.12811791655869054,0.9991169298701721,-0.011467740734830131,0.03129490495823708,0.02558281245084754,0.9990167726742181,-0.011557411059843828,0.03440198830750314,0.025369340228091196,-0.072,0.529,-1.179,3.0915573796105935,-0.06937837823616524,-0.021399694684818064,3.091067770949614,-0.0631632838459313,-0.02135821624052103,0.07199999999999993,-0.529,-1.179,0
0.5076858017924557,-0.1130324576995373,0.12484850594874475,0.5088644981795352,-0.11294223866745595,0.12801800270495195,0.9991169298701721,-0.011467740734830131,0.03129490495823708,0.02558281245084754,0.9990212481752869,-0.011557074988204932,0.0342888840948631,0.025346364581842282,-0.083,0.552,-1.227,3.091601366806046,-0.06915160726501421,-0.021406122018480012,3.091067770949614,-0.0631632838459313,-0.02135821624052103,0.08299999999999993,-0.552,-1.227,0
0.5076858017924557,-0.1130324576995373,0.12447120594874475,0.5088644981795352,-0.11294223866745595,0.12801800270495195,0.9991169298701721,-0.011467740734830131,0.03129490495823708,0.02558281245084754,0.9990212481752869,-0.011557074988204932,0.0342888840948631,0.025346364581842282,-0.098,0.516,-1.272,3.091601366806046,-0.06915160726501421,-0.021406122018480012,3.091067770949614,-0.0631632838459313,-0.02135821624052103,0.09799999999999993,-0.516,-1.272,0
0.5076858017924557,-0.1130324576995373,0.12409840594874476,0.5087832050053691,-0.11292472339080059,0.12794883931571752,0.9991169298701721,-0.011467740734830131,0.03129490495823708,0.02558281245084754,0.9990243186460751,-0.011552067082103679,0.034211925470577775,0.02533161491124817,-0.085,0.526,-1.292,3.091629194293708,-0.06899708763317015,-0.021400855410263875,3.091067770949614,-0.0631632838459313,-0.02135821624052103,0.09699999999999993,-0.517,-1.3,0
0.5076858017924557,-0.1130324576995373,0.12372760594874477,0.5086876092997942,-0.1129069761806488,0.1278664050832918,0.9991169298701721,-0.011467740734830131,0.03129490495823708,0.02558281245084754,0.999027899475482,-0.011552953422040388,0.03412047111270528,0.025313333370526114,-0.103,0.511,-1.343,3.0916642451185155,-0.06881378925574523,-0.021408339379455726,3.091067770949614,-0.0631632838459313,-0.02135821624052103,0.10299999999999992,-0.511,-1.343,0
0.5076858017924557,-0.1130324576995373,0.12336190594874477,0.5086876092997942,-0.1129069761806488,0.1278664050832918,0.9991169298701721,-0.011467740734830131,0.03129490495823708,0.02558281245084754,0.999027899475482,-0.011552953422040388,0.03412047111270528,0.025313333370526114,-0.111,0.511,-1.381,3.0916642451185155,-0.06881378925574523,-0.021408339379455726,3.091067770949614,-0.0631632838459313,-0.02135821624052103,0.11099999999999993,-0.511,-1.381,0
0.5076858017924557,-0.1130324576995373,0.12300000594874477,0.5085948992652126,-0.11289234365420354,0.12778514625261364,0.9991169298701721,-0.011467740734830131,0.03129490495823708,0.02558281245084754,0.999031280013443,-0.011558627626358823,0.03403195510760459,0.025296477451782845,-0.133,0.458,-1.47,3.0916968187347553,-0.0686366388445374,-0.02142516650951267,3.091067770949614,-0.0631632838459313,-0.02135821624052103,0.13299999999999995,-0.458,-1.47,0
0.5076858017924557,-0.1130324576995373,0.12264800594874478,0.5085948992652126,-0.11289234365420354,0.12778514625261364,0.9991169298701721,-0.011467740734830131,0.03129490495823708,0.02558281245084754,0.999031280013443,-0.011558627626358823,0.03403195510760459,0.025296477451782845,-0.195,0.449,-1.566,3.0916968187347553,-0.0686366388445374,-0.02142516650951267,3.091067770949614,-0.0631632838459313,-0.02135821624052103,0.19499999999999995,-0.449,-1.566,0
0.5076858017924557,-0.1130324576995373,0.12230460594874479,0.5085948992652126,-0.11289234365420354,0.12778514625261364,0.9991169298701721,-0.011467740734830131,0.03129490495823708,0.02558281245084754,0.999031280013443,-0.011558627626358823,0.03403195510760459,0.025296477451782845,-0.109,0.453,-1.591,3.0916968187347553,-0.0686366388445374,-0.02142516650951267,3.091067770949614,-0.0631632838459313,-0.02135821624052103,0.10899999999999994,-0.453,-1.591,0
0.5076858017924557,-0.1130324576995373,0.1219637059487448,0.5084770454256325,-0.11286880199104672,0.1276839546890231,0.9991169298701721,-0.011467740734830131,0.03129490495823708,0.02558281245084754,0.9990357525084593,-0.011556548408733667,0.03391762914398412,0.025274332632916587,-0.212,0.428,-1.727,3.0917389897696506,-0.06840735672074147,-0.021428072906435173,3.091067770949614,-0.0631632838459313,-0.02135821624052103,0.21199999999999994,-0.428,-1.727,0
0.5076858017924557,-0.1130324576995373,0.12163640594874481,0.5084770454256325,-0.11286880199104672,0.1276839546890231,0.9991169298701721,-0.011467740734830131,0.03129490495823708,0.02558281245084754,0.9990357525084593,-0.011556548408733667,0.03391762914398412,0.025274332632916587,-0.219,0.393,-1.818,3.0917389897696506,-0.06840735672074147,-0.021428072906435173,3.091067770949614,-0.0631632838459313,-0.02135821624052103,0.21899999999999994,-0.393,-1.818,0
0.5076858017924557,-0.1130324576995373,0.12131820594874482,0.5083430936377544,-0.1128434260540874,0.12755795755714966,0.9991169298701721,-0.011467740734830131,0.03129490495823708,0.02558281245084754,0.9990410082919872,-0.011554074920117856,0.033780472811549646,0.025251392409840753,-0.265,0.38,-1.903,3.091782312725555,-0.06813236792688608,-0.02143134147813584,3.091067770949614,-0.0631632838459313,-0.02135821624052103,0.26499999999999996,-0.38000000000000006,-1.903,0
0.5076858017924557,-0.1130324576995373,0.12100850594874482,0.5083430936377544,-0.1128434260540874,0.12755795755714966,0.9991169298701721,-0.011467740734830131,0.03129490495823708,0.02558281245084754,0.9990410082919872,-0.011554074920117856,0.033780472811549646,0.025251392409840753,-0.237,0.364,-2.026,3.091782312725555,-0.06813236792688608,-0.02143134147813584,3.091067770949614,-0.0631632838459313,-0.02135821624052103,0.25599999999999995,-0.36500000000000005,-2.024,0
0.5076858017924557,-0.1130324576995373,0.12131110594874482,0.5080457728873518,-0.11278954541351155,0.12728155334577662,0.9991169298701721,-0.011467740734830131,0.03129490495823708,0.02558281245084754,0.9990525424432436,-0.01155216044684875,0.03347563881047296,0.025201839049917924,-0.299,0.343,-2.093,3.091875962364963,-0.06752141041268717,-0.0214456438327883,3.091067770949614,-0.0631632838459313,-0.02135821624052103,0.29899999999999993,-0.3430000000000001,-2.093,0
0.5076858017924557,-0.1130324576995373,0.12162040594874482,0.5080457728873518,-0.11278954541351155,0.12728155334577662,0.9991169298701721,-0.011467740734830131,0.03129490495823708,0.02558281245084754,0.9990525424432436,-0.01155216044684875,0.03347563881047296,0.025201839049917924,-0.218,0.368,-2.169,3.091875962364963,-0.06752141041268717,-0.0214456438327883,3.091067770949614,-0.0631632838459313,-0.02135821624052103,0.21799999999999994,-0.368,-2.169,0
0.5076858017924557,-0.1130324576995373,0.12193730594874481,0.5079202487411091,-0.11276639942630563,0.1271433284524084,0.9991169298701721,-0.011467740734830131,0.03129490495823708,0.02558281245084754,0.9990579528910506,-0.011545395927920058,0.0333285446267124,0.025185407886367313,-0.275,0.339,-2.242,3.0919057627106774,-0.0672264719082571,-0.021440322849096048,3.091067770949614,-0.0631632838459313,-0.02135821624052103,0.27499999999999997,-0.3390000000000001,-2.242,0
0.5076858017924557,-0.1130324576995373,0.12226150594874481,0.5078185766663771,-0.11275613096049449,0.12701073161633833,0.9991169298701721,-0.011467740734830131,0.03129490495823708,0.02558281245084754,0.9990627770873429,-0.011546897297345017,0.03318984528205807,0.0251765134728628,-0.325,0.306,-2.332,3.0919211666487953,-0.06694890058240498,-0.0214506375243351,3.091067770949614,-0.0631632838459313,-0.02135821624052103,0.32499999999999996,-0.30600000000000005,-2.332,0
0.5076858017924557,-0.1130324576995373,0.1225947059487448,0.5078185766663771,-0.11275613096049449,0.12701073161633833,0.9991169298701721,-0.011467740734830131,0.03129490495823708,0.02558281245084754,0.9990627770873429,-0.011546897297345017,0.03318984528205807,0.0251765134728628,-0.346,0.321,-2.413,3.0919211666487953,-0.06694890058240498,-0.0214506375243351,3.091067770949614,-0.0631632838459313,-0.02135821624052103,0.3459999999999999,-0.32100000000000006,-2.413,0
0.5076858017924557,-0.1130324576995373,0.12293600594874479,0.5077354916609859,-0.11275075051438216,0.12688743857832468,0.9991169298701721,-0.011467740734830131,0.03129490495823708,0.02558281245084754,0.9990671102873592,-0.011544236088104287,0.03306238660552627,0.025173486183322602,-0.371,0.288,-2.516,3.091924736224918,-0.06669373532367337,-0.021451675350411144,3.091067770949614,-0.0631632838459313,-0.02135821624052103,0.37099999999999994,-0.28800000000000003,-2.516,0
0.5076858017924557,-0.1130324576995373,0.12328760594874479,0.5077354916609859,-0.11275075051438216,0.12688743857832468,0.9991169298701721,-0.011467740734830131,0.03129490495823708,0.02558281245084754,0.9990671102873592,-0.011544236088104287,0.03306238660552627,0.025173486183322602,-0.353,0.297,-2.534,3.091924736224918,-0.06669373532367337,-0.021451675350411144,3.091067770949614,-0.0631632838459313,-0.02135821624052103,0.3529999999999999,-0.29700000000000004,-2.534,0
0.5076858017924557,-0.1130324576995373,0.12364100594874478,0.5077354916609859,-0.11275075051438216,0.12688743857832468,0.9991169298701721,-0.011467740734830131,0.03129490495823708,0.02558281245084754,0.9990671102873592,-0.011544236088104287,0.03306238660552627,0.025173486183322602,-0.37,0.299,-2.569,3.091924736224918,-0.06669373532367337,-0.021451675350411144,3.091067770949614,-0.0631632838459313,-0.02135821624052103,0.36999999999999994,-0.29900000000000004,-2.569,0
0.5076858017924557,-0.1130324576995373,0.12399990594874477,0.5076934221162372,-0.11274750936991028,0.12680083997175276,0.9991169298701721,-0.011467740734830131,0.03129490495823708,0.02558281245084754,0.9990699106837212,-0.011541271597193646,0.03297657923018121,0.02517625664028503,-0.36,0.29,-2.587,3.091917425055326,-0.06652199923943022,-0.02144970396215887,3.091067770949614,-0.0631632838459313,-0.02135821624052103,0.35999999999999993,-0.29000000000000004,-2.587,0
0.5076858017924557,-0.1130324576995373,0.12435840594874477,0.5076934221162372,-0.11274750936991028,0.12680083997175276,0.9991169298701721,-0.011467740734830131,0.03129490495823708,0.02558281245084754,0.9990699106837212,-0.011541271597193646,0.03297657923018121,0.02517625664028503,-0.409,0.273,-2.597,3.091917425055326,-0.06652199923943022,-0.02144970396215887,3.091067770949614,-0.0631632838459313,-0.02135821624052103,0.4089999999999999,-0.2730000000000001,-2.597,0
0.5076858017924557,-0.1130324576995373,0.12471810594874476,0.5076698833927124,-0.11274977128958787,0.1267495016991279,0.9991169298701721,-0.011467740734830131,0.03129490495823708,0.02558281245084754,0.9990715100241738,-0.011539946002028928,0.032926043276217655,0.02517954007543593,-0.368,0.281,-2.603,3.0919098372203284,-0.0664209124500783,-0.021449275485969036,3.091067770949614,-0.0631632838459313,-0.02135821624052103,0.36799999999999994,-0.2810000000000001,-2.604,0
0.5076858017924557,-0.1130324576995373,0.12507840594874475,0.5076698833927124,-0.11274977128958787,0.1267495016991279,0.9991169298701721,-0.011467740734830131,0.03129490495823708,0.02558281245084754,0.9990715100241738,-0.011539946002028928,0.032926043276217655,0.02517954007543593,-0.387,0.321,-2.596,3.0919098372203284,-0.0664209124500783,-0.021449275485969036,3.091067770949614,-0.0631632838459313,-0.02135821624052103,0.38899999999999996,-0.31100000000000005,-2.588,0
0.5076858017924557,-0.1130324576995373,0.12543800594874474,0.507656576583936,-0.11275283845121324,0.1267211911737772,0.9991169298701721,-0.011467740734830131,0.03129490495823708,0.02558281245084754,0.9990724273616605,-0.011542507168118044,0.032896198557996574,0.02518097682881043,-0.368,0.271,-2.62,3.0919065848578327,-0.06636136975648303,-0.021455753687685205,3.091067770949614,-0.0631632838459313,-0.02135821624052103,0.36799999999999994,-0.2710000000000001,-2.62,0
0.5076858017924557,-0.1130324576995373,0.12579920594874475,0.507656576583936,-0.11275283845121324,0.1267211911737772,0.9991169298701721,-0.011467740734830131,0.03129490495823708,0.02558281245084754,0.9990724273616605,-0.011542507168118044,0.032896198557996574,0.02518097682881043,-0.365,0.309,-2.584,3.0919065848578327,-0.06636136975648303,-0.021455753687685205,3.091067770949614,-0.0631632838459313,-0.02135821624052103,0.36899999999999994,-0.31000000000000005,-2.594,0
0.5076858017924557,-0.1130324576995373,0.12615760594874473,0.507659187625316,-0.1127470432971256,0.12672234891593787,0.9991169298701721,-0.011467740734830131,0.03129490495823708,0.02558281245084754,0.999072388139971,-0.011538336186571239,0.032898832652846745,0.02518100324752666,-0.323,0.317,-2.601,3.0919063027673435,-0.06636643217351093,-0.021447270741052342,3.091067770949614,-0.0631632838459313,-0.02135821624052103,0.32299999999999995,-0.31700000000000006,-2.601,0
0.5076858017924557,-0.1130324576995373,0.12651770594874473,0.5076573554716703,-0.11274983212164108,0.12672057109369064,0.9991169298701721,-0.011467740734830131,0.03129490495823708,0.02558281245084754,0.9990724667440916,-0.01153851333417108,0.0328964328287255,0.025180938647508158,-0.356,0.278,-2.557,3.091906400286479,-0.06636163902872619,-0.021447745970115444,3.091067770949614,-0.0631632838459313,-0.02135821624052103,0.3559999999999999,-0.2780000000000001,-2.557,0
0.5076858017924557,-0.1130324576995373,0.12687340594874472,0.5076573554716703,-0.11274983212164108,0.12672057109369064,0.9991169298701721,-0.011467740734830131,0.03129490495823708,0.02558281245084754,0.9990724667440916,-0.01153851333417108,0.0328964328287255,0.025180938647508158,-0.351,0.316,-2.563,3.091906400286479,-0.06636163902872619,-0.021447745970115444,3.091067770949614,-0.0631632838459313,-0.02135821624052103,0.3509999999999999,-0.31600000000000006,-2.563,0
0.5076858017924557,-0.1130324576995373,0.12722970594874472,0.5076608576349922,-0.11275169376028045,0.12672555013351972,0.9991169298701721,-0.011467740734830131,0.03129490495823708,0.02558281245084754,0.9990722423739379,-0.011540181590792278,0.03290181384910779,0.025182045828870316,-0.348,0.325,-2.54,3.09190439050774,-0.06637250982556087,-0.021450753128079925,3.091067770949614,-0.0631632838459313,-0.02135821624052103,0.3479999999999999,-0.32500000000000007,-2.54,0
0.5076858017924557,-0.1130324576995373,0.1275837059487447,0.5076608576349922,-0.11275169376028045,0.12672555013351972,0.9991169298701721,-0.011467740734830131,0.03129490495823708,0.02558281245084754,0.9990722423739379,-0.011540181590792278,0.03290181384910779,0.025182045828870316,-0.347,0.305,-2.54,3.09190439050774,-0.06637250982556087,-0.021450753128079925,3.091067770949614,-0.0631632838459313,-0.02135821624052103,0.3469999999999999,-0.30500000000000005,-2.54,0
0.5076858017924557,-0.1130324576995373,0.1279384059487447,0.5076687426864624,-0.11275333352766381,0.1267330670344924,0.9991169298701721,-0.011467740734830131,0.03129490495823708,0.02558281245084754,0.999071830643745,-0.011542688348821446,0.032913265132759155,0.025182267526667856,-0.336,0.313,-2.54,3.0919043214343174,-0.06639554615068319,-0.02145520476854863,3.091067770949614,-0.0631632838459313,-0.02135821624052103,0.33599999999999997,-0.31300000000000006,-2.54,0
0.5076858017924557,-0.1130324576995373,0.1282926059487447,0.5076687426864624,-0.11275333352766381,0.1267330670344924,0.9991169298701721,-0.011467740734830131,0.03129490495823708,0.02558281245084754,0.999071830643745,-0.011542688348821446,0.032913265132759155,0.025182267526667856,-0.314,0.339,-2.504,3.0919043214343174,-0.06639554615068319,-0.02145520476854863,3.091067770949614,-0.0631632838459313,-0.02135821624052103,0.31399999999999995,-0.3390000000000001,-2.504,0
0.5076858017924557,-0.1130324576995373,0.1286430059487447,0.5076687426864624,-0.11275333352766381,0.1267330670344924,0.9991169298701721,-0.011467740734830131,0.03129490495823708,0.02558281245084754,0.999071830643745,-0.011542688348821446,0.032913265132759155,0.025182267526667856,-0.304,0.308,-2.495,3.0919043214343174,-0.06639554615068319,-0.02145520476854863,3.091067770949614,-0.0631632838459313,-0.02135821624052103,0.30399999999999994,-0.30800000000000005,-2.495,0
0.5076858017924557,-0.1130324576995373,0.1289925059487447,0.5076816113736603,-0.11275200415431952,0.12674539044344915,0.9991169298701721,-0.011467740734830131,0.03129490495823708,0.02558281245084754,0.9990713310581035,-0.011540277175597349,0.03292815821484809,0.025183723255135015,-0.278,0.342,-2.442,3.091901515288998,-0.06642524940545923,-0.02144955795408483,3.091067770949614,-0.0631632838459313,-0.02135821624052103,0.27799999999999997,-0.3420000000000001,-2.442,0
0.5076858017924557,-0.1130324576995373,0.1293367059487447,0.5076816113736603,-0.11275200415431952,0.12674539044344915,0.9991169298701721,-0.011467740734830131,0.03129490495823708,0.02558281245084754,0.9990713310581035,-0.011540277175597349,0.03292815821484809,0.025183723255135015,-0.287,0.348,-2.38,3.091901515288998,-0.06642524940545923,-0.02144955795408483,3.091067770949614,-0.0631632838459313,-0.02135821624052103,0.2869999999999999,-0.34800000000000003,-2.38,0
0.5076858017924557,-0.1130324576995373,0.1296747059487447,0.5077727027251357,-0.11277193207403607,0.1268269796860606,0.9991169298701721,-0.011467740734830131,0.03129490495823708,0.02558281245084754,0.9990678552733199,-0.011544153345759077,0.033019232662746444,0.025200583662672426,-0.185,0.366,-2.325,3.0918696454306884,-0.06660798823238498,-0.021451788191817915,3.091067770949614,-0.0631632838459313,-0.02135821624052103,0.18499999999999994,-0.366,-2.325,0
0.5076858017924557,-0.1130324576995373,0.13000720594874468,0.5077727027251357,-0.11277193207403607,0.1268269796860606,0.9991169298701721,-0.011467740734830131,0.03129490495823708,0.02558281245084754,0.9990678552733199,-0.011544153345759077,0.033019232662746444,0.025200583662672426,-0.183,0.373,-2.29,3.0918696454306884,-0.06660798823238498,-0.021451788191817915,3.091067770949614,-0.0631632838459313,-0.02135821624052103,0.18299999999999994,-0.373,-2.29,0
0.5076858017924557,-0.1130324576995373,0.13033620594874468,0.5078525607916997,-0.11278847376469828,0.12689822173861032,0.9991169298701721,-0.011467740734830131,0.03129490495823708,0.02558281245084754,0.999064910001572,-0.011544596467557258,0.03309748527965125,0.025214488365612624,-0.219,0.394,-2.234,3.091843235332175,-0.06676484464800932,-0.021447955950480636,3.091067770949614,-0.0631632838459313,-0.02135821624052103,0.21899999999999994,-0.394,-2.234,0
0.5076858017924557,-0.1130324576995373,0.13065960594874468,0.5079574788032578,-0.11280615810742423,0.12700745647723782,0.9991169298701721,-0.011467740734830131,0.03129490495823708,0.02558281245084754,0.9990605950239421,-0.011546632234416602,0.03321495826367643,0.025230048774912594,-0.121,0.378,-2.107,3.091814325637222,-0.06700027265069322,-0.02144529717955534,3.091067770949614,-0.0631632838459313,-0.02135821624052103,0.12099999999999995,-0.378,-2.107,0
0.5076858017924557,-0.1130324576995373,0.13097030594874468,0.5079574788032578,-0.11280615810742423,0.12700745647723782,0.9991169298701721,-0.011467740734830131,0.03129490495823708,0.02558281245084754,0.9990605950239421,-0.011546632234416602,0.03321495826367643,0.025230048774912594,-0.137,0.445,-2.0,3.091814325637222,-0.06700027265069322,-0.02144529717955534,3.091067770949614,-0.0631632838459313,-0.02135821624052103,0.13699999999999996,-0.445,-2.0,0
0.5076858017924557,-0.1130324576995373,0.13127130594874467,0.508055327032159,-0.11281258181153621,0.1271737957412864,0.9991169298701721,-0.011467740734830131,0.03129490495823708,0.02558281245084754,0.9990548876857608,-0.011549682928084953,0.03338496933527827,0.025230261528182897,-0.14,0.382,-1.891,3.091817192054083,-0.06734052043819108,-0.021443152384875628,3.091067770949614,-0.0631632838459313,-0.02135821624052103,0.13999999999999996,-0.382,-1.891,0
0.5076858017924557,-0.1130324576995373,0.13096040594874467,0.508055327032159,-0.11281258181153621,0.1271737957412864,0.9991169298701721,-0.011467740734830131,0.03129490495823708,0.02558281245084754,0.9990548876857608,-0.011549682928084953,0.03338496933527827,0.025230261528182897,-0.088,0.422,-1.74,3.091817192054083,-0.06734052043819108,-0.021443152384875628,3.091067770949614,-0.0631632838459313,-0.02135821624052103,0.08799999999999994,-0.422,-1.74,0
0.5076858017924557,-0.1130324576995373,0.13063440594874468,0.508130555924337,-0.11280770109823746,0.12735920827429545,0.9991169298701721,-0.011467740734830131,0.03129490495823708,0.02558281245084754,0.9990490339373715,-0.011551777839489899,0.03356779110469217,0.02521851852325648,-0.105,0.428,-1.634,3.0918441830021193,-0.06770609289355728,-0.02143928522636095,3.091067770949614,-0.0631632838459313,-0.02135821624052103,0.10499999999999994,-0.428,-1.634,0
0.5076858017924557,-0.1130324576995373,0.13029780594874468,0.508130555924337,-0.11280770109823746,0.12735920827429545,0.9991169298701721,-0.011467740734830131,0.03129490495823708,0.02558281245084754,0.9990490339373715,-0.011551777839489899,0.03356779110469217,0.02521851852325648,-0.044,0.41,-1.506,3.0918441830021193,-0.06770609289355728,-0.02143928522636095,3.091067770949614,-0.0631632838459313,-0.02135821624052103,0.04399999999999995,-0.41,-1.506,0
0.5076858017924557,-0.1130324576995373,0.12994840594874468,0.508130555924337,-0.11280770109823746,0.12735920827429545,0.9991169298701721,-0.011467740734830131,0.03129490495823708,0.02558281245084754,0.9990490339373715,-0.011551777839489899,0.03356779110469217,0.02521851852325648,-0.009,0.432,-1.417,3.0918441830021193,-0.06770609289355728,-0.02143928522636095,3.091067770949614,-0.0631632838459313,-0.02135821624052103,0.008999999999999947,-0.432,-1.417,0
0.5076858017924557,-0.1130324576995373,0.12959010594874468,0.5082135522631621,-0.11280362125995047,0.12755682520701142,0.9991169298701721,-0.011467740734830131,0.03129490495823708,0.02558281245084754,0.9990427214428775,-0.011556199810587668,0.03376348249509073,0.025205322569920377,-0.05,0.425,-1.389,3.0918744750512595,-0.06809749723079037,-0.021439565879466924,3.091067770949614,-0.0631632838459313,-0.02135821624052103,0.04999999999999995,-0.425,-1.389,0
0.5076858017924557,-0.1130324576995373,0.12922900594874467,0.5082135522631621,-0.11280362125995047,0.12755682520701142,0.9991169298701721,-0.011467740734830131,0.03129490495823708,0.02558281245084754,0.9990427214428775,-0.011556199810587668,0.03376348249509073,0.025205322569920377,-0.037,0.44,-1.331,3.0918744750512595,-0.06809749723079037,-0.021439565879466924,3.091067770949614,-0.0631632838459313,-0.02135821624052103,0.03699999999999994,-0.44,-1.331,0
0.5076858017924557,-0.1130324576995373,0.12886210594874467,0.5083270380606588,-0.11279545967607589,0.12784706486197184,0.9991169298701721,-0.011467740734830131,0.03129490495823708,0.02558281245084754,0.9990334737791736,-0.011567447924071123,0.03404842875498842,0.025183386853127997,-0.039,0.431,-1.315,3.0919243655234157,-0.06866760646516325,-0.021449817689787386,3.091067770949614,-0.0631632838459313,-0.02135821624052103,0.038999999999999944,-0.431,-1.315,0
0.5076858017924557,-0.1130324576995373,0.12849360594874468,0.5083270380606588,-0.11279545967607589,0.12784706486197184,0.9991169298701721,-0.011467740734830131,0.03129490495823708,0.02558281245084754,0.9990334737791736,-0.011567447924071123,0.03404842875498842,0.025183386853127997,-0.018,0.447,-1.268,3.0919243655234157,-0.06866760646516325,-0.021449817689787386,3.091067770949614,-0.0631632838459313,-0.02135821624052103,0.017999999999999943,-0.447,-1.268,0
0.5076858017924557,-0.1130324576995373,0.1281205059487447,0.5083564830067739,-0.11279720965137273,0.12792135594142479,0.9991169298701721,-0.011467740734830131,0.03129490495823708,0.02558281245084754,0.9990310568178611,-0.011570059298385076,0.03412171375233024,0.02517887901328854,-0.023,0.438,-1.291,3.091934905807651,-0.06881424338545994,-0.021451817182049034,3.091067770949614,-0.0631632838459313,-0.02135821624052103,0.022999999999999948,-0.438,-1.291,0
0.5076858017924557,-0.1130324576995373,0.12774960594874468,0.508370356160943,-0.11279566028271933,0.12795307637758377,0.9991169298701721,-0.011467740734830131,0.03129490495823708,0.02558281245084754,0.9990299929806639,-0.011570126452368393,0.0341544409225577,0.025176686055389367,-0.037,0.441,-1.313,3.0919398975525727,-0.06887966926592401,-0.021450521648298075,3.091067770949614,-0.0631632838459313,-0.02135821624052103,0.03699999999999994,-0.441,-1.313,0
0.5076858017924557,-0.1130324576995373,0.1273796059487447,0.508370356160943,-0.11279566028271933,0.12795307637758377,0.9991169298701721,-0.011467740734830131,0.03129490495823708,0.02558281245084754,0.9990299929806639,-0.011570126452368393,0.0341544409225577,0.025176686055389367,-0.034,0.45,-1.299,3.0919398975525727,-0.06887966926592401,-0.021450521648298075,3.091067770949614,-0.0631632838459313,-0.02135821624052103,0.03399999999999995,-0.45,-1.299,0
0.5076858017924557,-0.1130324576995373,0.12700950594874472,0.5083687999186682,-0.11279725877905078,0.12795642654926995,0.9991169298701721,-0.011467740734830131,0.03129490495823708,0.02558281245084754,0.9990299470401075,-0.01157230442823421,0.03415578406236319,0.02517568586227894,-0.043,0.451,-1.319,3.09194207656565,-0.06888244289819088,-0.02145488845738347,3.091067770949614,-0.0631632838459313,-0.02135821624052103,0.04299999999999994,-0.451,-1.319,0
0.5076858017924557,-0.1130324576995373,0.12664140594874473,0.5083687999186682,-0.11279725877905078,0.12795642654926995,0.9991169298701721,-0.011467740734830131,0.03129490495823708,0.02558281245084754,0.9990299470401075,-0.01157230442823421,0.03415578406236319,0.02517568586227894,-0.035,0.451,-1.315,3.09194207656565,-0.06888244289819088,-0.02145488845738347,3.091067770949614,-0.0631632838459313,-0.02135821624052103,0.03499999999999995,-0.451,-1.315,0
0.5076858017924557,-0.1130324576995373,0.12627290594874474,0.508371231139347,-0.11279405572818718,0.1279586200123805,0.9991169298701721,-0.011467740734830131,0.03129490495823708,0.02558281245084754,0.9990298438771477,-0.011571728838960356,0.034159070112788195,0.025175585789881678,-0.022,0.431,-1.325,3.0919422968860513,-0.06888898579580006,-0.02145358365478776,3.091067770949614,-0.0631632838459313,-0.02135821624052103,0.021999999999999947,-0.431,-1.325,0
0.5076858017924557,-0.1130324576995373,0.12590540594874475,0.508371231139347,-0.11279405572818718,0.1279586200123805,0.9991169298701721,-0.011467740734830131,0.03129490495823708,0.02558281245084754,0.9990298438771477,-0.011571728838960356,0.034159070112788195,0.025175585789881678,-0.059,0.424,-1.324,3.0919422968860513,-0.06888898579580006,-0.02145358365478776,3.091067770949614,-0.0631632838459313,-0.02135821624052103,0.05899999999999995,-0.424,-1.324,0
0.5076858017924557,-0.1130324576995373,0.12553780594874475,0.508371231139347,-0.11279405572818718,0.1279586200123805,0.9991169298701721,-0.011467740734830131,0.03129490495823708,0.02558281245084754,0.9990298438771477,-0.011571728838960356,0.034159070112788195,0.025175585789881678,-0.048,0.444,-1.353,3.0919422968860513,-0.06888898579580006,-0.02145358365478776,3.091067770949614,-0.0631632838459313,-0.02135821624052103,0.047999999999999945,-0.444,-1.353,0
0.5076858017924557,-0.1130324576995373,0.12517310594874476,0.5083690811692158,-0.1127980761860167,0.1279573134801062,0.9991169298701721,-0.011467740734830131,0.03129490495823708,0.02558281245084754,0.999029875774505,-0.01157420401699823,0.03415739112432127,0.02517546025414976,-0.054,0.444,-1.33,3.0919426888199784,-0.06888574729679031,-0.021458631410478136,3.091067770949614,-0.0631632838459313,-0.02135821624052103,0.053999999999999944,-0.444,-1.33,0
0.5076858017924557,-0.1130324576995373,0.12480770594874477,0.5083690811692158,-0.1127980761860167,0.1279573134801062,0.9991169298701721,-0.011467740734830131,0.03129490495823708,0.02558281245084754,0.999029875774505,-0.01157420401699823,0.03415739112432127,0.02517546025414976,-0.093,0.428,-1.355,3.0919426888199784,-0.06888574729679031,-0.021458631410478136,3.091067770949614,-0.0631632838459313,-0.02135821624052103,0.09299999999999994,-0.428,-1.355,0
0.5076858017924557,-0.1130324576995373,0.12444320594874478,0.5083568663769562,-0.11279365192722876,0.12794638959708649,0.9991169298701721,-0.011467740734830131,0.03129490495823708,0.02558281245084754,0.9990303739527007,-0.01157402316229332,0.03414486078085108,0.025172771919694508,-0.072,0.427,-1.361,3.0919478372051223,-0.06886061401990926,-0.021459060085119875,3.091067770949614,-0.0631632838459313,-0.02135821624052103,0.07199999999999994,-0.427,-1.361,0
0.5076858017924557,-0.1130324576995373,0.12407930594874478,0.5083568663769562,-0.11279365192722876,0.12794638959708649,0.9991169298701721,-0.011467740734830131,0.03129490495823708,0.02558281245084754,0.9990303739527007,-0.01157402316229332,0.03414486078085108,0.025172771919694508,-0.077,0.429,-1.38,3.0919478372051223,-0.06886061401990926,-0.021459060085119875,3.091067770949614,-0.0631632838459313,-0.02135821624052103,0.07699999999999994,-0.429,-1.38,0
0.5076858017924557,-0.1130324576995373,0.12371730594874478,0.5083433419449698,-0.11279094419597488,0.12793007277149068,0.9991169298701721,-0.011467740734830131,0.03129490495823708,0.02558281245084754,0.9990310299441311,-0.011572341804241689,0.0341270673761966,0.025171639647088326,-0.135,0.435,-1.407,3.0919496683668206,-0.06882491106508472,-0.021456629903040723,3.091067770949614,-0.0631632838459313,-0.02135821624052103,0.13499999999999995,-0.435,-1.407,0
0.5076858017924557,-0.1130324576995373,0.12335800594874478,0.50830154426664,-0.11278515038491493,0.1278943049231797,0.9991169298701721,-0.011467740734830131,0.03129490495823708,0.02558281245084754,0.9990325766444113,-0.011570516756806114,0.034087847210981896,0.025164234028146285,-0.083,0.405,-1.456,3.0919636741199903,-0.06874620280698306,-0.021455379184583415,3.091067770949614,-0.0631632838459313,-0.02135821624052103,0.08299999999999995,-0.405,-1.456,0
0.5076858017924557,-0.1130324576995373,0.12300360594874479,0.50830154426664,-0.11278515038491493,0.1278943049231797,0.9991169298701721,-0.011467740734830131,0.03129490495823708,0.02558281245084754,0.9990325766444113,-0.011570516756806114,0.034087847210981896,0.025164234028146285,-0.125,0.422,-1.533,3.0919636741199903,-0.06874620280698306,-0.021455379184583415,3.091067770949614,-0.0631632838459313,-0.02135821624052103,0.12499999999999994,-0.422,-1.533,0
0.5076858017924557,-0.1130324576995373,0.1226569059487448,0.5082125083740268,-0.11276773905127443,0.12780984919332034,0.9991169298701721,-0.011467740734830131,0.03129490495823708,0.02558281245084754,0.9990361763398505,-0.01157026917449438,0.03399347105907776,0.025149099732636782,-0.136,0.388,-1.626,3.0919922777905233,-0.06855706964063782,-0.021460481352664106,3.091067770949614,-0.0631632838459313,-0.02135821624052103,0.13599999999999995,-0.388,-1.626,0
0.5076858017924557,-0.1130324576995373,0.1223195059487448,0.5082125083740268,-0.11276773905127443,0.12780984919332034,0.9991169298701721,-0.011467740734830131,0.03129490495823708,0.02558281245084754,0.9990361763398505,-0.01157026917449438,0.03399347105907776,0.025149099732636782,-0.202,0.377,-1.689,3.0919922777905233,-0.06855706964063782,-0.021460481352664106,3.091067770949614,-0.0631632838459313,-0.02135821624052103,0.20199999999999996,-0.377,-1.689,0
0.5076858017924557,-0.1130324576995373,0.1219884059487448,0.5081248404458051,-0.1127507737590163,0.1277262308295662,0.9991169298701721,-0.011467740734830131,0.03129490495823708,0.02558281245084754,0.9990396399993597,-0.011569725990256562,0.033902331234981015,0.025134779567059527,-0.217,0.391,-1.751,3.0920192865854808,-0.06837441391047806,-0.021464774190089037,3.091067770949614,-0.0631632838459313,-0.02135821624052103,0.21699999999999994,-0.391,-1.751,0
0.5076858017924557,-0.1130324576995373,0.12166440594874481,0.5081248404458051,-0.1127507737590163,0.1277262308295662,0.9991169298701721,-0.011467740734830131,0.03129490495823708,0.02558281245084754,0.9990396399993597,-0.011569725990256562,0.033902331234981015,0.025134779567059527,-0.211,0.307,-1.873,3.0920192865854808,-0.06837441391047806,-0.021464774190089037,3.091067770949614,-0.0631632838459313,-0.02135821624052103,0.21099999999999997,-0.307,-1.873,0
0.5076858017924557,-0.1130324576995373,0.12135170594874481,0.5080317441077121,-0.11273598066442951,0.12763257080716114,0.9991169298701721,-0.011467740734830131,0.03129490495823708,0.02558281245084754,0.9990434427975557,-0.011568056143043452,0.03380117930740152,0.025120625280618928,-0.268,0.363,-1.933,3.0920457027570856,-0.0681716776855566,-0.02146727694874078,3.091067770949614,-0.0631632838459313,-0.02135821624052103,0.26799999999999996,-0.36300000000000004,-1.933,0
0.5076858017924557,-0.1130324576995373,0.12104500594874482,0.5080317441077121,-0.11273598066442951,0.12763257080716114,0.9991169298701721,-0.011467740734830131,0.03129490495823708,0.02558281245084754,0.9990434427975557,-0.011568056143043452,0.03380117930740152,0.025120625280618928,-0.235,0.326,-2.014,3.0920457027570856,-0.0681716776855566,-0.02146727694874078,3.091067770949614,-0.0631632838459313,-0.02135821624052103,0.23499999999999996,-0.32600000000000007,-2.014,0
0.5076858017924557,-0.1130324576995373,0.12134640594874481,0.5080317441077121,-0.11273598066442951,0.12763257080716114,0.9991169298701721,-0.011467740734830131,0.03129490495823708,0.02558281245084754,0.9990434427975557,-0.011568056143043452,0.03380117930740152,0.025120625280618928,-0.351,0.283,-2.15,3.0920457027570856,-0.0681716776855566,-0.02146727694874078,3.091067770949614,-0.0631632838459313,-0.02135821624052103,0.3509999999999999,-0.28300000000000003,-2.15,0
0.5076858017924557,-0.1130324576995373,0.1216614059487448,0.507800447125673,-0.11270118707585708,0.12736442435500037,0.9991169298701721,-0.011467740734830131,0.03129490495823708,0.02558281245084754,0.9990537407899615,-0.011565994879533349,0.03351696402060202,0.025092826781729503,-0.267,0.306,-2.193,3.0920961057122307,-0.06760242331665077,-0.02147873926457799,3.091067770949614,-0.0631632838459313,-0.02135821624052103,0.26699999999999996,-0.30600000000000005,-2.193,0
0.5076858017924557,-0.1130324576995373,0.1219807059487448,0.507800447125673,-0.11270118707585708,0.12736442435500037,0.9991169298701721,-0.011467740734830131,0.03129490495823708,0.02558281245084754,0.9990537407899615,-0.011565994879533349,0.03351696402060202,0.025092826781729503,-0.307,0.335,-2.292,3.0920961057122307,-0.06760242331665077,-0.02147873926457799,3.091067770949614,-0.0631632838459313,-0.02135821624052103,0.30699999999999994,-0.3350000000000001,-2.292,0
0.5076858017924557,-0.1130324576995373,0.1223112059487448,0.5076872073410407,-0.11268942705933267,0.12721029703993894,0.9991169298701721,-0.011467740734830131,0.03129490495823708,0.02558281245084754,0.9990593677984452,-0.01156191135901226,0.033355859121009634,0.02508534511791056,-0.306,0.24,-2.383,3.092107890404035,-0.0672797824024971,-0.021478827585495956,3.091067770949614,-0.0631632838459313,-0.02135821624052103,0.30599999999999994,-0.24000000000000002,-2.383,0
0.5076858017924557,-0.1130324576995373,0.1226495059487448,0.5076107483986376,-0.11268426245304276,0.1270780674947534,0.9991169298701721,-0.011467740734830131,0.03129490495823708,0.02558281245084754,0.9990638702387429,-0.011558463351021198,0.03322162551307195,0.025085748238688428,-0.355,0.295,-2.446,3.092104405545897,-0.06701109774524545,-0.021478361614310482,3.091067770949614,-0.0631632838459313,-0.02135821624052103,0.3549999999999999,-0.29500000000000004,-2.446,0
0.5076858017924557,-0.1130324576995373,0.1229941059487448,0.5076107483986376,-0.11268426245304276,0.1270780674947534,0.9991169298701721,-0.011467740734830131,0.03129490495823708,0.02558281245084754,0.9990638702387429,-0.011558463351021198,0.03322162551307195,0.025085748238688428,-0.38,0.262,-2.549,3.092104405545897,-0.06701109774524545,-0.021478361614310482,3.091067770949614,-0.0631632838459313,-0.02135821624052103,0.37999999999999995,-0.26200000000000007,-2.549,0
0.5076858017924557,-0.1130324576995373,0.12235370414413994,0.507553870698893,-0.11268405420747972,0.12696823786669084,0.9991169298701721,-0.011467740734830131,0.03129490495823708,0.02558281245084754,0.9990674906266099,-0.011558408401599616,0.03311007567339861,0.02508906764033478,-0.389,0.262,-2.545,3.0920957165924983,-0.06678802162729637,-0.021483404450766467,3.091067770949614,-0.0631632838459313,-0.02135821624052103,0.38899999999999996,-0.26200000000000007,-2.545,0
0.5076858017924557,-0.1130324576995373,0.12171290233953509,0.507553870698893,-0.11268405420747972,0.12696823786669084,0.9991169298701721,-0.011467740734830131,0.03129490495823708,0.02558281245084754,0.9990674906266099,-0.011558408401599616,0.03311007567339861,0.02508906764033478,-0.34,0.28,-2.584,3.0920957165924983,-0.06678802162729637,-0.021483404450766467,3.091067770949614,-0.0631632838459313,-0.02135821624052103,0.33999999999999997,-0.2800000000000001,-2.584,0
0.5076858017924557,-0.1130324576995373,0.12107600053493024,0.507531310442012,-0.11268521556949133,0.1269154564796119,0.9991169298701721,-0.011467740734830131,0.03129490495823708,0.02558281245084754,0.9990691354569252,-0.011558363883317508,0.03305896558128427,0.025090987511150603,-0.413,0.266,-2.589,3.092090934136736,-0.0666858201555202,-0.021485650289851967,3.091067770949614,-0.0631632838459313,-0.02135821624052103,0.4129999999999999,-0.26600000000000007,-2.589,0
0.5076858017924557,-0.1130324576995373,0.12046031434949155,0.507531310442012,-0.11268521556949133,0.1269154564796119,0.9991169298701721,-0.011467740734830131,0.03129490495823708,0.02558281245084754,0.9990691354569252,-0.011558363883317508,0.03305896558128427,0.025090987511150603,-0.38,0.246,-2.622,3.092090934136736,-0.0666858201555202,-0.021485650289851967,3.091067770949614,-0.0631632838459313,-0.02135821624052103,0.37999999999999995,-0.24600000000000005,-2.622,0
0.5076858017924557,-0.1130324576995373,0.11984792816405285,0.5075140440193106,-0.11268402979874831,0.1268836325676244,0.9991169298701721,-0.011467740734830131,0.03129490495823708,0.02558281245084754,0.9990702447503915,-0.011556127767279442,0.03302517076765875,0.0250923518095297,-0.387,0.258,-2.659,3.0920874344761997,-0.0666181357456725,-0.02148270958758657,3.091067770949614,-0.0631632838459313,-0.02135821624052103,0.38699999999999996,-0.25800000000000006,-2.659,0
0.5076858017924557,-0.1130324576995373,0.11923924197861414,0.5075140440193106,-0.11268402979874831,0.1268836325676244,0.9991169298701721,-0.011467740734830131,0.03129490495823708,0.02558281245084754,0.9990702447503915,-0.011556127767279442,0.03302517076765875,0.0250923518095297,-0.417,0.271,-2.712,3.0920874344761997,-0.0666181357456725,-0.02148270958758657,3.091067770949614,-0.0631632838459313,-0.02135821624052103,0.4169999999999999,-0.2710000000000001,-2.712,0
0.5076858017924557,-0.1130324576995373,0.11863397029224203,0.5075140440193106,-0.11268402979874831,0.1268836325676244,0.9991169298701721,-0.011467740734830131,0.03129490495823708,0.02558281245084754,0.9990702447503915,-0.011556127767279442,0.03302517076765875,0.0250923518095297,-0.42,0.247,-2.787,3.0920874344761997,-0.0666181357456725,-0.02148270958758657,3.091067770949614,-0.0631632838459313,-0.02135821624052103,0.41999999999999993,-0.24700000000000005,-2.787,0
0.5076858017924557,-0.1130324576995373,0.1180361986058699,0.507427294441951,-0.1126782712981164,0.12674072558401017,0.9991169298701721,-0.011467740734830131,0.03129490495823708,0.02558281245084754,0.9990750777038007,-0.011552287961656032,0.03288006310850345,0.025092255031331,-0.479,0.266,-2.9,3.0920847245011305,-0.066327671642764,-0.021482021203972218,3.091067770949614,-0.0631632838459313,-0.02135821624052103,0.4789999999999999,-0.26600000000000007,-2.9,0
0.5076858017924557,-0.1130324576995373,0.11744972691949779,0.507427294441951,-0.1126782712981164,0.12674072558401017,0.9991169298701721,-0.011467740734830131,0.03129490495823708,0.02558281245084754,0.9990750777038007,-0.011552287961656032,0.03288006310850345,0.025092255031331,-0.472,0.24,-3.0,3.0920847245011305,-0.066327671642764,-0.021482021203972218,3.091067770949614,-0.0631632838459313,-0.02135821624052103,0.4719999999999999,-0.24000000000000005,-3.0,0
0.5076858017924557,-0.1130324576995373,0.11689765473530364,0.507350112459405,-0.1126777408072736,0.12659383123093587,0.9991169298701721,-0.011467740734830131,0.03129490495823708,0.02558281245084754,0.999079831534367,-0.011551036438405627,0.032733079000415624,0.025095724264078176,-0.495,0.22,-3.133,3.09207500497911,-0.06603366024526974,-0.021486372329821073,3.091067770949614,-0.0631632838459313,-0.02135821624052103,0.495,-0.22000000000000006,-3.133,0
0.5076858017924557,-0.1130324576995373,0.1163588825511095,0.5072744921464981,-0.11268023529283991,0.12641697879553274,0.9991169298701721,-0.011467740734830131,0.03129490495823708,0.02558281245084754,0.999085330812822,-0.011545905071346852,0.03255922572646729,0.025105312388326886,-0.512,0.235,-3.275,3.092052275723979,-0.06568584154475426,-0.02148384978779594,3.091067770949614,-0.0631632838459313,-0.02135821624052103,0.512,-0.23500000000000004,-3.275,0
0.5076858017924557,-0.1130324576995373,0.11583431036691536,0.5072744921464981,-0.11268023529283991,0.12641697879553274,0.9991169298701721,-0.011467740734830131,0.03129490495823708,0.02558281245084754,0.999085330812822,-0.011545905071346852,0.03255922572646729,0.025105312388326886,-0.64,0.226,-3.481,3.092052275723979,-0.06568584154475426,-0.02148384978779594,3.091067770949614,-0.0631632838459313,-0.02135821624052103,0.64,-0.2260000000000001,-3.481,0
0.5076858017924557,-0.1130324576995373,0.11534209300537211,0.507177263408413,-0.11268437576331583,0.12616928200206332,0.9991169298701721,-0.011467740734830131,0.03129490495823708,0.02558281245084754,0.9990927396447492,-0.011538844454785018,0.03231911104316276,0.02512396822314826,-0.642,0.195,-3.677,3.0920100382876465,-0.06520557818307263,-0.021480079264808178,3.091067770949614,-0.0631632838459313,-0.02135821624052103,0.642,-0.1950000000000001,-3.677,0
0.5076858017924557,-0.1130324576995373,0.11486947564382886,0.5070619239041083,-0.11269560346123386,0.12585541137652143,0.9991169298701721,-0.011467740734830131,0.03129490495823708,0.02558281245084754,0.9990927396447492,-0.011538844454785018,0.03231911104316276,0.02512396822314826,-0.648,0.252,-3.942,3.0920100382876465,-0.06520557818307263,-0.021480079264808178,3.091067770949614,-0.0631632838459313,-0.02135821624052103,0.648,-0.25200000000000006,-3.942,0
0.5076858017924557,-0.1130324576995373,0.11442357607942315,0.5070619239041083,-0.11269560346123386,0.12585541137652143,0.9991169298701721,-0.011467740734830131,0.03129490495823708,0.02558281245084754,0.9991016267199428,-0.01152753496905234,0.03202643518225575,0.025150525521109114,-0.72,0.219,-4.122,3.091950731173079,-0.06462013776805943,-0.021469851626384005,3.091067770949614,-0.0631632838459313,-0.02135821624052103,0.72,-0.21900000000000008,-4.122,0
0.5076858017924557,-0.1130324576995373,0.11399567651501742,0.5070619239041083,-0.11269560346123386,0.12585541137652143,0.9991169298701721,-0.011467740734830131,0.03129490495823708,0.02558281245084754,0.9991016267199428,-0.01152753496905234,0.03202643518225575,0.025150525521109114,-0.779,0.208,-4.377,3.091950731173079,-0.06462013776805943,-0.021469851626384005,3.091067770949614,-0.0631632838459313,-0.02135821624052103,0.779,-0.20800000000000007,-4.377,0
0.5076858017924557,-0.1130324576995373,0.11359327695061171,0.5070324557225429,-0.11272695877574579,0.1255074855873883,0.9991169298701721,-0.011467740734830131,0.03129490495823708,0.02558281245084754,0.9991059052808694,-0.011515719559049068,0.03184841087392653,0.025211961911464877,-0.766,0.248,-4.739,3.0918236113694224,-0.0642647645388867,-0.021450847178462903,3.091067770949614,-0.0631632838459313,-0.02135821624052103,0.766,-0.24800000000000008,-4.739,0
0.5076858017924557,-0.1130324576995373,0.113227077386206,0.5070324557225429,-0.11272695877574579,0.1255074855873883,0.9991169298701721,-0.011467740734830131,0.03129490495823708,0.02558281245084754,0.9991059052808694,-0.011515719559049068,0.03184841087392653,0.025211961911464877,-0.876,0.23,-4.981,3.0918236113694224,-0.0642647645388867,-0.021450847178462903,3.091067770949614,-0.0631632838459313,-0.02135821624052103,0.876,-0.23000000000000012,-4.981,0
0.5076858017924557,-0.1130324576995373,0.11288706910991478,0.5070324557225429,-0.11272695877574579,0.1255074855873883,0.9991169298701721,-0.011467740734830131,0.03129490495823708,0.02558281245084754,0.9991059052808694,-0.011515719559049068,0.03184841087392653,0.025211961911464877,-0.99,0.185,-5.291,3.0918236113694224,-0.0642647645388867,-0.021450847178462903,3.091067770949614,-0.0631632838459313,-0.02135821624052103,0.99,-0.1850000000000001,-5.291,0
0.5076858017924557,-0.1130324576995373,0.11257806083362355,0.5069189196391456,-0.11278395588747205,0.12469341558991301,0.9991169298701721,-0.011467740734830131,0.03129490495823708,0.02558281245084754,0.9991181828105533,-0.011474354481904012,0.03137107376380847,0.025342410397523118,-0.989,0.272,-5.552,3.0915508739603315,-0.0633106816418317,-0.021382901166288697,3.091067770949614,-0.0631632838459313,-0.02135821624052103,0.989,-0.27200000000000013,-5.552,0
0.5076858017924557,-0.1130324576995373,0.11289515255733232,0.5069189196391456,-0.11278395588747205,0.12469341558991301,0.9991169298701721,-0.011467740734830131,0.03129490495823708,0.02558281245084754,0.9991181828105533,-0.011474354481904012,0.03137107376380847,0.025342410397523118,-1.015,0.224,-5.764,3.0915508739603315,-0.0633106816418317,-0.021382901166288697,3.091067770949614,-0.0631632838459313,-0.02135821624052103,1.015,-0.22400000000000012,-5.764,0
0.5076858017924557,-0.1130324576995373,0.11323234284980276,0.5068496215033078,-0.11284660559729903,0.1239777780278819,0.9991169298701721,-0.011467740734830131,0.03129490495823708,0.02558281245084754,0.9991274359953631,-0.011445391144918738,0.030983383687455533,0.025467345143321454,-1.093,0.232,-6.032,3.0912916624193576,-0.06253641816251175,-0.021336002230873174,3.091067770949614,-0.0631632838459313,-0.02135821624052103,1.093,-0.23200000000000015,-6.032,0
0.5076858017924557,-0.1130324576995373,0.11359633314227319,0.5068496215033078,-0.11284660559729903,0.1239777780278819,0.9991169298701721,-0.011467740734830131,0.03129490495823708,0.02558281245084754,0.9991274359953631,-0.011445391144918738,0.030983383687455533,0.025467345143321454,-1.091,0.232,-6.263,3.0912916624193576,-0.06253641816251175,-0.021336002230873174,3.091067770949614,-0.0631632838459313,-0.02135821624052103,1.091,-0.23200000000000015,-6.263,0
0.5076858017924557,-0.1130324576995373,0.11398342343474362,0.5068496215033078,-0.11284660559729903,0.1239777780278819,0.9991169298701721,-0.011467740734830131,0.03129490495823708,0.02558281245084754,0.9991274359953631,-0.011445391144918738,0.030983383687455533,0.025467345143321454,-1.124,0.27,-6.401,3.0912916624193576,-0.06253641816251175,-0.021336002230873174,3.091067770949614,-0.0631632838459313,-0.02135821624052103,1.124,-0.27000000000000013,-6.401,0
0.5076858017924557,-0.1130324576995373,0.11438625523312569,0.5067952635306582,-0.1128622833917147,0.1236783170436832,0.9991169298701721,-0.011467740734830131,0.03129490495823708,0.02558281245084754,0.9991326489071759,-0.011430237044796452,0.03078553263065261,0.025509539816640423,-1.169,0.213,-6.549,3.091202572452006,-0.06214080656239597,-0.02131274317873143,3.091067770949614,-0.0631632838459313,-0.02135821624052103,1.169,-0.21300000000000013,-6.549,0
0.5076858017924557,-0.1130324576995373,0.11480388703150776,0.5067952635306582,-0.1128622833917147,0.1236783170436832,0.9991169298701721,-0.011467740734830131,0.03129490495823708,0.02558281245084754,0.9991326489071759,-0.011430237044796452,0.03078553263065261,0.025509539816640423,-1.169,0.253,-6.6,3.091202572452006,-0.06214080656239597,-0.02131274317873143,3.091067770949614,-0.0631632838459313,-0.02135821624052103,1.169,-0.25300000000000017,-6.6,0
0.5076858017924557,-0.1130324576995373,0.1152240861603192,0.5067710722839375,-0.11287532928372122,0.12347734737458366,0.9991169298701721,-0.011467740734830131,0.03129490495823708,0.02558281245084754,0.999135365845386,-0.011417604447064345,0.030673388324671372,0.02554385147067617,-1.174,0.256,-6.646,3.0911310026767205,-0.06191658696180639,-0.02129083537993952,3.091067770949614,-0.0631632838459313,-0.02135821624052103,1.174,-0.25600000000000017,-6.646,0
0.5076858017924557,-0.1130324576995373,0.11564888528913066,0.5067710722839375,-0.11287532928372122,0.12347734737458366,0.9991169298701721,-0.011467740734830131,0.03129490495823708,0.02558281245084754,0.999135365845386,-0.011417604447064345,0.030673388324671372,0.02554385147067617,-1.229,0.212,-6.639,3.0911310026767205,-0.06191658696180639,-0.02129083537993952,3.091067770949614,-0.0631632838459313,-0.02135821624052103,1.229,-0.21200000000000013,-6.639,0
0.5076858017924557,-0.1130324576995373,0.11607547352808523,0.5067501780939425,-0.11288561287287234,0.12336916533833378,0.9991169298701721,-0.011467740734830131,0.03129490495823708,0.02558281245084754,0.9991372230487711,-0.011413904527421014,0.030600963567820286,0.02555972230942159,-1.157,0.272,-6.643,3.0910976580593466,-0.06177187297408662,-0.021286012321286914,3.091067770949614,-0.0631632838459313,-0.02135821624052103,1.157,-0.2720000000000002,-6.643,0
0.5076858017924557,-0.1130324576995373,0.1165024617670398,0.5067501780939425,-0.11288561287287234,0.12336916533833378,0.9991169298701721,-0.011467740734830131,0.03129490495823708,0.02558281245084754,0.9991372230487711,-0.011413904527421014,0.030600963567820286,0.02555972230942159,-1.18,0.226,-6.619,3.0910976580593466,-0.06177187297408662,-0.021286012321286914,3.091067770949614,-0.0631632838459313,-0.02135821624052103,1.18,-0.22600000000000015,-6.619,0
0.5076858017924557,-0.1130324576995373,0.11692705000599436,0.5067406228361024,-0.11289031431993338,0.12333601465246641,0.9991169298701721,-0.011467740734830131,0.03129490495823708,0.02558281245084754,0.9991380210288274,-0.011417217630098866,0.030570266755232996,0.025563781807868342,-1.159,0.241,-6.577,3.0910891704855232,-0.061710726659662915,-0.021293908548526946,3.091067770949614,-0.0631632838459313,-0.02135821624052103,1.159,-0.24100000000000013,-6.577,0
0.5076858017924557,-0.1130324576995373,0.11733778049759361,0.5067406228361024,-0.11289031431993338,0.12333601465246641,0.9991169298701721,-0.011467740734830131,0.03129490495823708,0.02558281245084754,0.9991380210288274,-0.011417217630098866,0.030570266755232996,0.025563781807868342,-1.17,0.242,-6.572,3.0910891704855232,-0.061710726659662915,-0.021293908548526946,3.091067770949614,-0.0631632838459313,-0.02135821624052103,1.17,-0.24200000000000013,-6.572,0
0.5076858017924557,-0.1130324576995373,0.11774801098919285,0.5067390545835591,-0.11288943870705985,0.12333190331608807,0.9991169298701721,-0.011467740734830131,0.03129490495823708,0.02558281245084754,0.9991381684984693,-0.011416380288883301,0.03056573066748813,0.025563816090328446,-1.151,0.248,-6.555,3.091088967401127,-0.06170161194345407,-0.02129245343392762,3.091067770949614,-0.0631632838459313,-0.02135821624052103,1.151,-0.24800000000000014,-6.555,0
0.5076858017924557,-0.1130324576995373,0.11815591298048096,0.5067366743690311,-0.11288991790383693,0.12333115795292551,0.9991169298701721,-0.011467740734830131,0.03129490495823708,0.02558281245084754,0.9991382078301271,-0.01141715917933811,0.03056432052596443,0.025563617011085334,-1.139,0.256,-6.537,3.0910893886328696,-0.06169882647194443,-0.02129409487491316,3.091067770949614,-0.0631632838459313,-0.02135821624052103,1.139,-0.25600000000000017,-6.537,0
0.5076858017924557,-0.1130324576995373,0.11856201497176908,0.5067366743690311,-0.11288991790383693,0.12333115795292551,0.9991169298701721,-0.011467740734830131,0.03129490495823708,0.02558281245084754,0.9991382078301271,-0.01141715917933811,0.03056432052596443,0.025563617011085334,-1.15,0.266,-6.502,3.0910893886328696,-0.06169882647194443,-0.02129409487491316,3.091067770949614,-0.0631632838459313,-0.02135821624052103,1.15,-0.2660000000000002,-6.502,0
0.5076858017924557,-0.1130324576995373,0.11896461696305718,0.5067445825453782,-0.11289018483576944,0.12333650005538499,0.9991169298701721,-0.011467740734830131,0.03129490495823708,0.02558281245084754,0.9991379661195181,-0.01141615511678223,0.030571609360293003,0.02556479680658728,-1.13,0.254,-6.494,3.0910870958667758,-0.061713380099952676,-0.02129165207377034,3.091067770949614,-0.0631632838459313,-0.02135821624052103,1.13,-0.2540000000000001,-6.494,0
0.5076858017924557,-0.1130324576995373,0.11937010906013247,0.5067445825453782,-0.11289018483576944,0.12333650005538499,0.9991169298701721,-0.011467740734830131,0.03129490495823708,0.02558281245084754,0.9991379661195181,-0.01141615511678223,0.030571609360293003,0.02556479680658728,-1.13,0.277,-6.451,3.0910870958667758,-0.061713380099952676,-0.02129165207377034,3.091067770949614,-0.0631632838459313,-0.02135821624052103,1.13,-0.27700000000000014,-6.451,0
0.5076858017924557,-0.1130324576995373,0.11977130115720776,0.5067445825453782,-0.11289018483576944,0.12333650005538499,0.9991169298701721,-0.011467740734830131,0.03129490495823708,0.02558281245084754,0.9991379661195181,-0.01141615511678223,0.030571609360293003,0.02556479680658728,-1.085,0.282,-6.397,3.0910870958667758,-0.061713380099952676,-0.02129165207377034,3.091067770949614,-0.0631632838459313,-0.02135821624052103,1.085,-0.2820000000000001,-6.397,0
0.5076858017924557,-0.1130324576995373,0.12016709325428304,0.5067651553314073,-0.11289053425477473,0.12335332931482187,0.9991169298701721,-0.011467740734830131,0.03129490495823708,0.02558281245084754,0.9991373094879992,-0.011412956145334703,0.03059102419604204,0.02556866312174511,-1.04,0.272,-6.309,3.091079506143059,-0.061752134636989774,-0.021284050129899715,3.091067770949614,-0.0631632838459313,-0.02135821624052103,1.04,-0.27200000000000013,-6.309,0
0.5076858017924557,-0.1130324576995373,0.1205487213189999,0.5067651553314073,-0.11289053425477473,0.12335332931482187,0.9991169298701721,-0.011467740734830131,0.03129490495823708,0.02558281245084754,0.9991373094879992,-0.011412956145334703,0.03059102419604204,0.02556866312174511,-1.031,0.294,-6.227,3.091079506143059,-0.061752134636989774,-0.021284050129899715,3.091067770949614,-0.0631632838459313,-0.02135821624052103,1.031,-0.2940000000000001,-6.227,0
0.5076858017924557,-0.1130324576995373,0.12092214938371675,0.5068322541603849,-0.11290988126987772,0.1234100612723337,0.9991169298701721,-0.011467740734830131,0.03129490495823708,0.02558281245084754,0.9991349559271622,-0.01141725571319691,0.030655562970573026,0.02558141217715692,-0.94,0.3,-6.132,3.091055405959091,-0.06188171502557987,-0.021288686398188362,3.091067770949614,-0.0631632838459313,-0.02135821624052103,0.94,-0.3000000000000001,-6.132,0
0.5076858017924557,-0.1130324576995373,0.12128823052870741,0.5068322541603849,-0.11290988126987772,0.1234100612723337,0.9991169298701721,-0.011467740734830131,0.03129490495823708,0.02558281245084754,0.9991349559271622,-0.01141725571319691,0.030655562970573026,0.02558141217715692,-0.915,0.334,-6.061,3.091055405959091,-0.06188171502557987,-0.021288686398188362,3.091067770949614,-0.0631632838459313,-0.02135821624052103,0.915,-0.33400000000000013,-6.061,0
0.5076858017924557,-0.1130324576995373,0.12164721167369807,0.5069934127329061,-0.11293807903434157,0.12354866372314907,0.9991169298701721,-0.011467740734830131,0.03129490495823708,0.02558281245084754,0.9991294444621196,-0.011417978310951092,0.030810460186236118,0.02561024398060365,-0.805,0.321,-6.004,3.0910005069925104,-0.06219219448423306,-0.02128069536055224,3.091067770949614,-0.0631632838459313,-0.02135821624052103,0.805,-0.3210000000000001,-6.004,0
0.5076858017924557,-0.1130324576995373,0.12200142001221705,0.5069934127329061,-0.11293807903434157,0.12354866372314907,0.9991169298701721,-0.011467740734830131,0.03129490495823708,0.02558281245084754,0.9991294444621196,-0.011417978310951092,0.030810460186236118,0.02561024398060365,-0.817,0.316,-5.899,3.0910005069925104,-0.06219219448423306,-0.02128069536055224,3.091067770949614,-0.0631632838459313,-0.02135821624052103,0.817,-0.3160000000000001,-5.899,0
0.5076858017924557,-0.1130324576995373,0.12234512835073602,0.5070679936213042,-0.11295617763350264,0.12361595305930223,0.9991169298701721,-0.011467740734830131,0.03129490495823708,0.02558281245084754,0.9991268066532583,-0.011420636056557052,0.030883646110948567,0.025623812656405696,-0.78,0.386,-5.807,3.0909748189274695,-0.0623390065390973,-0.021281555514165176,3.091067770949614,-0.0631632838459313,-0.02135821624052103,0.78,-0.3860000000000001,-5.807,0
0.5076858017924557,-0.1130324576995373,0.122679636689255,0.5071798368528013,-0.11297415844497678,0.12371971247347868,0.9991169298701721,-0.011467740734830131,0.03129490495823708,0.02558281245084754,0.9991227677887446,-0.011421695579708757,0.030998705975738196,0.025641880921283503,-0.78,0.391,-5.719,3.090940776224848,-0.06256959152627709,-0.021276859723638023,3.091067770949614,-0.0631632838459313,-0.02135821624052103,0.78,-0.3910000000000001,-5.719,0
0.5076858017924557,-0.1130324576995373,0.12300125666436389,0.5071798368528013,-0.11297415844497678,0.12371971247347868,0.9991169298701721,-0.011467740734830131,0.03129490495823708,0.02558281245084754,0.9991227677887446,-0.011421695579708757,0.030998705975738196,0.025641880921283503,-0.706,0.38,-5.6,3.090940776224848,-0.06256959152627709,-0.021276859723638023,3.091067770949614,-0.0631632838459313,-0.02135821624052103,0.706,-0.3800000000000001,-5.6,0
0.5076858017924557,-0.1130324576995373,0.12331097663947278,0.5073004509093298,-0.1129983600487624,0.12383455536457877,0.9991169298701721,-0.011467740734830131,0.03129490495823708,0.02558281245084754,0.9991183499338706,-0.011422511279104361,0.031124305772866036,0.02566150277495418,-0.729,0.426,-5.511,3.0909037944931015,-0.06282128034615046,-0.021271048826804126,3.091067770949614,-0.0631632838459313,-0.02135821624052103,0.729,-0.4260000000000001,-5.511,0
0.5076858017924557,-0.1130324576995373,0.12301072007444479,0.5073004509093298,-0.1129983600487624,0.12383455536457877,0.9991169298701721,-0.011467740734830131,0.03129490495823708,0.02558281245084754,0.9991183499338706,-0.011422511279104361,0.031124305772866036,0.02566150277495418,-0.653,0.413,-5.388,3.0909037944931015,-0.06282128034615046,-0.021271048826804126,3.091067770949614,-0.0631632838459313,-0.02135821624052103,0.653,-0.41300000000000003,-5.388,0
0.5076858017924557,-0.1130324576995373,0.12269816350941679,0.5073004509093298,-0.1129983600487624,0.12383455536457877,0.9991169298701721,-0.011467740734830131,0.03129490495823708,0.02558281245084754,0.9991183499338706,-0.011422511279104361,0.031124305772866036,0.02566150277495418,-0.613,0.435,-5.258,3.0909037944931015,-0.06282128034615046,-0.021271048826804126,3.091067770949614,-0.0631632838459313,-0.02135821624052103,0.613,-0.43500000000000005,-5.258,0
0.5076858017924557,-0.1130324576995373,0.12237267539491772,0.5074126659455532,-0.11301488965760918,0.12395383676284363,0.9991169298701721,-0.011467740734830131,0.03129490495823708,0.02558281245084754,0.9991139313428293,-0.011423661005936784,0.03125268108890359,0.025676996777935408,-0.608,0.458,-5.175,3.0908751516396933,-0.06307845080759787,-0.021266021203169058,3.091067770949614,-0.0631632838459313,-0.02135821624052103,0.6079999999999999,-0.4580000000000001,-5.175,0
0.5076858017924557,-0.1130324576995373,0.12203888728041866,0.5074126659455532,-0.11301488965760918,0.12395383676284363,0.9991169298701721,-0.011467740734830131,0.03129490495823708,0.02558281245084754,0.9991139313428293,-0.011423661005936784,0.03125268108890359,0.025676996777935408,-0.555,0.44,-5.058,3.0908751516396933,-0.06307845080759787,-0.021266021203169058,3.091067770949614,-0.0631632838459313,-0.02135821624052103,0.555,-0.44000000000000006,-5.058,0
0.5076858017924557,-0.1130324576995373,0.12169339916591959,0.5075273517571223,-0.1130334461333605,0.12408482267060938,0.9991169298701721,-0.011467740734830131,0.03129490495823708,0.02558281245084754,0.9991091826314836,-0.011428512156612582,0.03139109825174651,0.025690763208291046,-0.574,0.488,-5.002,3.0908503840059605,-0.06335585962594402,-0.021268010913914424,3.091067770949614,-0.0631632838459313,-0.02135821624052103,0.5739999999999998,-0.48800000000000004,-5.002,0
0.5076858017924557,-0.1130324576995373,0.12134293955173167,0.5075273517571223,-0.1130334461333605,0.12408482267060938,0.9991169298701721,-0.011467740734830131,0.03129490495823708,0.02558281245084754,0.9991091826314836,-0.011428512156612582,0.03139109825174651,0.025690763208291046,-0.551,0.485,-4.989,3.0908503840059605,-0.06335585962594402,-0.021268010913914424,3.091067770949614,-0.0631632838459313,-0.02135821624052103,0.5509999999999999,-0.48500000000000004,-4.989,0
0.5076858017924557,-0.1130324576995373,0.12099117993754376,0.507627964819216,-0.11304591960968181,0.12422088517614108,0.9991169298701721,-0.011467740734830131,0.03129490495823708,0.02558281245084754,0.9991045142939967,-0.011431632390166716,0.031532213625691974,0.025698110321727845,-0.524,0.454,-4.959,3.0908384158580753,-0.06363844233361537,-0.021266803640173016,3.091067770949614,-0.0631632838459313,-0.02135821624052103,0.5239999999999999,-0.45400000000000007,-4.959,0
0.5076858017924557,-0.1130324576995373,0.12062871030468751,0.507627964819216,-0.11304591960968181,0.12422088517614108,0.9991169298701721,-0.011467740734830131,0.03129490495823708,0.02558281245084754,0.9991045142939967,-0.011431632390166716,0.031532213625691974,0.025698110321727845,-0.555,0.484,-4.965,3.0908384158580753,-0.06363844233361537,-0.021266803640173016,3.091067770949614,-0.0631632838459313,-0.02135821624052103,0.5349999999999999,-0.49300000000000005,-4.951,0
0.5076858017924557,-0.1130324576995373,0.12026684067183126,0.507652004937824,-0.11304785357016099,0.12424837796299493,0.9991169298701721,-0.011467740734830131,0.03129490495823708,0.02558281245084754,0.999103546055021,-0.01142981908664547,0.03156147124275904,0.025700643982410357,-0.568,0.485,-4.942,3.0908337530324617,-0.0636969272681992,-0.02126156180109144,3.091067770949614,-0.0631632838459313,-0.02135821624052103,0.5679999999999998,-0.48500000000000004,-4.942,0
0.5076858017924557,-0.1130324576995373,0.119902671038975,0.507659571265815,-0.11304731968360633,0.1242572017070738,0.9991169298701721,-0.011467740734830131,0.03129490495823708,0.02558281245084754,0.9991032621591326,-0.011427723271475777,0.031570824879482186,0.025701123957118203,-0.557,0.484,-4.932,3.0908328268214773,-0.06371554084690438,-0.02125687096126985,3.091067770949614,-0.0631632838459313,-0.02135821624052103,0.5569999999999999,-0.48400000000000004,-4.932,0
0.5076858017924557,-0.1130324576995373,0.11953920022379144,0.507659571265815,-0.11304731968360633,0.1242572017070738,0.9991169298701721,-0.011467740734830131,0.03129490495823708,0.02558281245084754,0.9991032621591326,-0.011427723271475777,0.031570824879482186,0.025701123957118203,-0.549,0.504,-4.934,3.0908328268214773,-0.06371554084690438,-0.02125687096126985,3.091067770949614,-0.0631632838459313,-0.02135821624052103,0.5489999999999999,-0.5040000000000001,-4.934,0
0.5076858017924557,-0.1130324576995373,0.11917692940860787,0.5076636881076866,-0.11304852134036293,0.12425982490176385,0.9991169298701721,-0.011467740734830131,0.03129490495823708,0.02558281245084754,0.9991030898433669,-0.011429180251547261,0.031574662219032865,0.025702460625937232,-0.583,0.449,-4.947,3.0908303109560507,-0.0637233189932548,-0.021259513197954293,3.091067770949614,-0.0631632838459313,-0.02135821624052103,0.589,-0.45000000000000007,-4.955,0
0.5076858017924557,-0.1130324576995373,0.11882044708128989,0.5076636881076866,-0.11304852134036293,0.12425982490176385,0.9991169298701721,-0.011467740734830131,0.03129490495823708,0.02558281245084754,0.9991030898433669,-0.011429180251547261,0.031574662219032865,0.025702460625937232,-0.58,0.487,-4.966,3.0908303109560507,-0.0637233189932548,-0.021259513197954293,3.091067770949614,-0.0631632838459313,-0.02135821624052103,0.5799999999999998,-0.48700000000000004,-4.966,0
0.5076858017924557,-0.1130324576995373,0.1184658647539719,0.5076636881076866,-0.11304852134036293,0.12425982490176385,0.9991169298701721,-0.011467740734830131,0.03129490495823708,0.02558281245084754,0.9991030898433669,-0.011429180251547261,0.031574662219032865,0.025702460625937232,-0.594,0.46,-4.964,3.0908303109560507,-0.0637233189932548,-0.021259513197954293,3.091067770949614,-0.0631632838459313,-0.02135821624052103,0.5939999999999999,-0.4600000000000001,-4.964,0
0.5076858017924557,-0.1130324576995373,0.11811265722441372,0.5076620360026286,-0.11304861945740627,0.12426043969979156,0.9991169298701721,-0.011467740734830131,0.03129490495823708,0.02558281245084754,0.9991031407427147,-0.011430844193460686,0.03157299780706538,0.02570178672036036,-0.59,0.479,-4.957,3.0908317372396814,-0.06372005988275449,-0.02126297075903325,3.091067770949614,-0.0631632838459313,-0.02135821624052103,0.5899999999999999,-0.47900000000000004,-4.957,0
0.5076858017924557,-0.1130324576995373,0.11775864969485554,0.5076620360026286,-0.11304861945740627,0.12426043969979156,0.9991169298701721,-0.011467740734830131,0.03129490495823708,0.02558281245084754,0.9991031407427147,-0.011430844193460686,0.03157299780706538,0.02570178672036036,-0.577,0.469,-4.976,3.0908317372396814,-0.06372005988275449,-0.02126297075903325,3.091067770949614,-0.0631632838459313,-0.02135821624052103,0.5769999999999998,-0.46900000000000003,-4.976,0
0.5076858017924557,-0.1130324576995373,0.11740997713729487,0.507664510474067,-0.11304735769828342,0.12426051201005175,0.9991169298701721,-0.011467740734830131,0.03129490495823708,0.02558281245084754,0.9991031003099703,-0.011429294063490853,0.031574644901933666,0.025702024429594465,-0.596,0.471,-4.964,3.0908311918716085,-0.06372328085332978,-0.021259769819704438,3.091067770949614,-0.0631632838459313,-0.02135821624052103,0.5959999999999999,-0.47100000000000003,-4.964,0
0.5076858017924557,-0.1130324576995373,0.1170601045797342,0.507664510474067,-0.11304735769828342,0.12426051201005175,0.9991169298701721,-0.011467740734830131,0.03129490495823708,0.02558281245084754,0.9991031003099703,-0.011429294063490853,0.031574644901933666,0.025702024429594465,-0.57,0.469,-4.962,3.0908311918716085,-0.06372328085332978,-0.021259769819704438,3.091067770949614,-0.0631632838459313,-0.02135821624052103,0.5699999999999998,-0.46900000000000003,-4.962,0
0.5076858017924557,-0.1130324576995373,0.11671003202217353,0.5076543693233742,-0.11304579103327797,0.12424911140035105,0.9991169298701721,-0.011467740734830131,0.03129490495823708,0.02558281245084754,0.999103563299058,-0.011427807508345688,0.031561430546649255,0.025700918134139987,-0.583,0.462,-4.981,3.0908330747473935,-0.06369674954521318,-0.021257518078813802,3.091067770949614,-0.0631632838459313,-0.02135821624052103,0.5829999999999999,-0.4620000000000001,-4.981,0
0.5076858017924557,-0.1130324576995373,0.11636135541980888,0.5076543693233742,-0.11304579103327797,0.12424911140035105,0.9991169298701721,-0.011467740734830131,0.03129490495823708,0.02558281245084754,0.999103563299058,-0.011427807508345688,0.031561430546649255,0.025700918134139987,-0.612,0.465,-4.996,3.0908330747473935,-0.06369674954521318,-0.021257518078813802,3.091067770949614,-0.0631632838459313,-0.02135821624052103,0.6119999999999999,-0.4650000000000001,-4.996,0
0.5076858017924557,-0.1130324576995373,0.11601417881744423,0.5076543693233742,-0.11304579103327797,0.12424911140035105,0.9991169298701721,-0.011467740734830131,0.03129490495823708,0.02558281245084754,0.999103563299058,-0.011427807508345688,0.031561430546649255,0.025700918134139987,-0.625,0.448,-5.025,3.0908330747473935,-0.06369674954521318,-0.021257518078813802,3.091067770949614,-0.0631632838459313,-0.02135821624052103,0.625,-0.44800000000000006,-5.025,0
0.5076858017924557,-0.1130324576995373,0.11566914925926129,0.5076243498225932,-0.11304253921406016,0.12421731735307412,0.9991169298701721,-0.011467740734830131,0.03129490495823708,0.02558281245084754,0.9991047967584,-0.011427703467158242,0.031525465415953295,0.025697155300824386,-0.654,0.461,-5.034,3.0908399570325265,-0.06362472428778079,-0.021259330978198272,3.091067770949614,-0.0631632838459313,-0.02135821624052103,0.6539999999999999,-0.4610000000000001,-5.034,0
0.5076858017924557,-0.1130324576995373,0.11532501970107835,0.5076243498225932,-0.11304253921406016,0.12421731735307412,0.9991169298701721,-0.011467740734830131,0.03129490495823708,0.02558281245084754,0.9991047967584,-0.011427703467158242,0.031525465415953295,0.025697155300824386,-0.739,0.444,-5.097,3.0908399570325265,-0.06362472428778079,-0.021259330978198272,3.091067770949614,-0.0631632838459313,-0.02135821624052103,0.739,-0.4440000000000001,-5.097,0
0.5076858017924557,-0.1130324576995373,0.1149871901428954,0.5075646847413566,-0.11302877156150792,0.124166519483287,0.9991169298701721,-0.011467740734830131,0.03129490495823708,0.02558281245084754,0.99910695077447,-0.011427448900482742,0.03146624627489444,0.025686100202063744,-0.714,0.447,-5.149,3.0908610195245894,-0.06350602211240028,-0.021262457500301504,3.091067770949614,-0.0631632838459313,-0.02135821624052103,0.714,-0.4470000000000001,-5.149,0
0.5076858017924557,-0.1130324576995373,0.11465991839429554,0.5075646847413566,-0.11302877156150792,0.124166519483287,0.9991169298701721,-0.011467740734830131,0.03129490495823708,0.02558281245084754,0.99910695077447,-0.011427448900482742,0.03146624627489444,0.025686100202063744,-0.749,0.436,-5.259,3.0908610195245894,-0.06350602211240028,-0.021262457500301504,3.091067770949614,-0.0631632838459313,-0.02135821624052103,0.749,-0.4360000000000001,-5.259,0
0.5076858017924557,-0.1130324576995373,0.11434364664569567,0.5074960201600613,-0.11302041145416766,0.12409207935271571,0.9991169298701721,-0.011467740734830131,0.03129490495823708,0.02558281245084754,0.9991096614087371,-0.01142841016072967,0.03138716539041119,0.025676990517269505,-0.775,0.366,-5.42,3.090877900970596,-0.06334769454490585,-0.02126887563148554,3.091067770949614,-0.0631632838459313,-0.02135821624052103,0.775,-0.3660000000000001,-5.42,0
0.5076858017924557,-0.1130324576995373,0.1140434748970958,0.5074960201600613,-0.11302041145416766,0.12409207935271571,0.9991169298701721,-0.011467740734830131,0.03129490495823708,0.02558281245084754,0.9991096614087371,-0.01142841016072967,0.03138716539041119,0.025676990517269505,-0.849,0.417,-5.487,3.090877900970596,-0.06334769454490585,-0.02126887563148554,3.091067770949614,-0.0631632838459313,-0.02135821624052103,0.849,-0.4170000000000001,-5.487,0
0.5076858017924557,-0.1130324576995373,0.11435020850008273,0.5074960201600613,-0.11302041145416766,0.12409207935271571,0.9991169298701721,-0.011467740734830131,0.03129490495823708,0.02558281245084754,0.9991096614087371,-0.01142841016072967,0.03138716539041119,0.025676990517269505,-0.836,0.401,-5.62,3.090877900970596,-0.06334769454490585,-0.02126887563148554,3.091067770949614,-0.0631632838459313,-0.02135821624052103,0.829,-0.4100000000000001,-5.618,0
0.5076858017924557,-0.1130324576995373,0.11467024210306966,0.5074323065742407,-0.11301622085341087,0.12396613610647056,0.9991169298701721,-0.011467740734830131,0.03129490495823708,0.02558281245084754,0.9991136026936202,-0.01142216966404844,0.03126113967809711,0.025680151319885748,-0.941,0.374,-5.691,3.0908688904355923,-0.0630953615662636,-0.021262416728269465,3.091067770949614,-0.0631632838459313,-0.02135821624052103,0.941,-0.3740000000000001,-5.691,0
0.5076858017924557,-0.1130324576995373,0.11499481814538452,0.5074323065742407,-0.11301622085341087,0.12396613610647056,0.9991169298701721,-0.011467740734830131,0.03129490495823708,0.02558281245084754,0.9991136026936202,-0.01142216966404844,0.03126113967809711,0.025680151319885748,-0.943,0.388,-5.762,3.0908688904355923,-0.0630953615662636,-0.021262416728269465,3.091067770949614,-0.0631632838459313,-0.02135821624052103,0.943,-0.3880000000000001,-5.762,0
0.5076858017924557,-0.1130324576995373,0.11532649418769939,0.5073158958554939,-0.1130136884638959,0.12373872291664859,0.9991169298701721,-0.011467740734830131,0.03129490495823708,0.02558281245084754,0.9991205977786689,-0.011414767633887234,0.031032700343185945,0.02568835840489748,-0.97,0.397,-5.864,3.09084784111528,-0.06263822615916075,-0.02125838940820408,3.091067770949614,-0.0631632838459313,-0.02135821624052103,0.97,-0.39700000000000013,-5.864,0
0.5076858017924557,-0.1130324576995373,0.11566837023001425,0.5073158958554939,-0.1130136884638959,0.12373872291664859,0.9991169298701721,-0.011467740734830131,0.03129490495823708,0.02558281245084754,0.9991205977786689,-0.011414767633887234,0.031032700343185945,0.02568835840489748,-0.977,0.358,-5.884,3.09084784111528,-0.06263822615916075,-0.02125838940820408,3.091067770949614,-0.0631632838459313,-0.02135821624052103,0.977,-0.3580000000000001,-5.884,0
0.5076858017924557,-0.1130324576995373,0.11601617906635525,0.5072599069963322,-0.11300974008758968,0.12364908906562902,0.9991169298701721,-0.011467740734830131,0.03129490495823708,0.02558281245084754,0.9991235205993457,-0.011411774237657235,0.030939956642129743,0.02568787945904107,-1.023,0.395,-5.976,3.0908469311833806,-0.06245255496899862,-0.02125701942115605,3.091067770949614,-0.0631632838459313,-0.02135821624052103,1.023,-0.39500000000000013,-5.976,0
0.5076858017924557,-0.1130324576995373,0.11637318790269625,0.5072329880124222,-0.11300822921498782,0.12359500947266774,0.9991169298701721,-0.011467740734830131,0.03129490495823708,0.02558281245084754,0.9991251315671098,-0.01141324237064355,0.030886585095632496,0.025688797261980655,-0.981,0.354,-5.984,3.0908442155702636,-0.062345893741242484,-0.021262545801971334,3.091067770949614,-0.0631632838459313,-0.02135821624052103,0.981,-0.3540000000000001,-5.984,0
0.5076858017924557,-0.1130324576995373,0.11673084116965331,0.5072329880124222,-0.11300822921498782,0.12359500947266774,0.9991169298701721,-0.011467740734830131,0.03129490495823708,0.02558281245084754,0.9991251315671098,-0.01141324237064355,0.030886585095632496,0.025688797261980655,-1.021,0.395,-5.98,3.0908442155702636,-0.062345893741242484,-0.021262545801971334,3.091067770949614,-0.0631632838459313,-0.02135821624052103,1.021,-0.39500000000000013,-5.98,0
0.5076858017924557,-0.1130324576995373,0.11708809443661036,0.5072245078353995,-0.11301257112036929,0.12357559888721426,0.9991169298701721,-0.011467740734830131,0.03129490495823708,0.02558281245084754,0.9991256561186243,-0.011413838243089296,0.03086741187452578,0.025691176310844503,-1.018,0.346,-6.004,3.0908391383030924,-0.062307623844828575,-0.021264540322895625,3.091067770949614,-0.0631632838459313,-0.02135821624052103,1.018,-0.3460000000000001,-6.004,0
0.5076858017924557,-0.1130324576995373,0.11744196052248465,0.5072245078353995,-0.11301257112036929,0.12357559888721426,0.9991169298701721,-0.011467740734830131,0.03129490495823708,0.02558281245084754,0.9991256561186243,-0.011413838243089296,0.03086741187452578,0.025691176310844503,-1.005,0.392,-5.956,3.0908391383030924,-0.062307623844828575,-0.021264540322895625,3.091067770949614,-0.0631632838459313,-0.02135821624052103,1.005,-0.3920000000000001,-5.956,0
0.5076858017924557,-0.1130324576995373,0.11779102660835894,0.5072210777540586,-0.11301049958235568,0.12356924320911958,0.9991169298701721,-0.011467740734830131,0.03129490495823708,0.02558281245084754,0.9991259002499878,-0.011409876729283381,0.03086053407824817,0.025691704371119534,-1.011,0.354,-5.974,3.090837708477068,-0.06229367678764769,-0.02125691562594236,3.091067770949614,-0.0631632838459313,-0.02135821624052103,1.011,-0.3540000000000001,-5.974,0
0.5076858017924557,-0.1130324576995373,0.11814189269423324,0.5072210777540586,-0.11301049958235568,0.12356924320911958,0.9991169298701721,-0.011467740734830131,0.03129490495823708,0.02558281245084754,0.9991259002499878,-0.011409876729283381,0.03086053407824817,0.025691704371119534,-1.008,0.363,-5.964,3.090837708477068,-0.06229367678764769,-0.02125691562594236,3.091067770949614,-0.0631632838459313,-0.02135821624052103,1.008,-0.3630000000000001,-5.964,0
0.5076858017924557,-0.1130324576995373,0.11849447191016353,0.5072210777540586,-0.11301049958235568,0.12356924320911958,0.9991169298701721,-0.011467740734830131,0.03129490495823708,0.02558281245084754,0.9991259002499878,-0.011409876729283381,0.03086053407824817,0.025691704371119534,-0.98,0.391,-5.961,3.090837708477068,-0.06229367678764769,-0.02125691562594236,3.091067770949614,-0.0631632838459313,-0.02135821624052103,0.98,-0.3910000000000001,-5.961,0
0.5076858017924557,-0.1130324576995373,0.11884675112609383,0.5072193139072086,-0.11300858776033978,0.12356745339252145,0.9991169298701721,-0.011467740734830131,0.03129490495823708,0.02558281245084754,0.9991259921578456,-0.011412624619409308,0.03085844461007417,0.025689419305540088,-1.003,0.381,-5.957,3.090842419951257,-0.06228958828550863,-0.021262664126541132,3.091067770949614,-0.0631632838459313,-0.02135821624052103,1.003,-0.3810000000000001,-5.957,0
0.5076858017924557,-0.1130324576995373,0.11919261291825313,0.5072193139072086,-0.11300858776033978,0.12356745339252145,0.9991169298701721,-0.011467740734830131,0.03129490495823708,0.02558281245084754,0.9991259921578456,-0.011412624619409308,0.03085844461007417,0.025689419305540088,-1.002,0.37,-5.934,3.090842419951257,-0.06228958828550863,-0.021262664126541132,3.091067770949614,-0.0631632838459313,-0.02135821624052103,1.002,-0.3700000000000001,-5.934,0
0.5076858017924557,-0.1130324576995373,0.11953617471041243,0.5072188109216922,-0.11300834867172573,0.12356658042044993,0.9991169298701721,-0.011467740734830131,0.03129490495823708,0.02558281245084754,0.9991260261667505,-0.011410289702268647,0.030856739484462124,0.02569118190945042,-0.992,0.369,-5.929,3.0908387120963856,-0.062286096600703666,-0.021257963183480846,3.091067770949614,-0.0631632838459313,-0.02135821624052103,0.992,-0.3690000000000001,-5.929,0
0.5076858017924557,-0.1130324576995373,0.11987923650257173,0.5072202163999672,-0.11300953083288899,0.12356911329247058,0.9991169298701721,-0.011467740734830131,0.03129490495823708,0.02558281245084754,0.9991259598377809,-0.011411023168534025,0.03085872847696724,0.025691046680755895,-0.989,0.369,-5.915,3.09083906485169,-0.06229010939836398,-0.021259341761159612,3.091067770949614,-0.0631632838459313,-0.02135821624052103,0.989,-0.3690000000000001,-5.915,0
0.5076858017924557,-0.1130324576995373,0.12021993998732593,0.5072202163999672,-0.11300953083288899,0.12356911329247058,0.9991169298701721,-0.011467740734830131,0.03129490495823708,0.02558281245084754,0.9991259598377809,-0.011411023168534025,0.03085872847696724,0.025691046680755895,-0.959,0.366,-5.916,3.09083906485169,-0.06229010939836398,-0.021259341761159612,3.091067770949614,-0.0631632838459313,-0.02135821624052103,0.959,-0.3660000000000001,-5.916,0
0.5076858017924557,-0.1130324576995373,0.12056074347208012,0.5072254771689145,-0.11301081240858964,0.1235749436067006,0.9991169298701721,-0.011467740734830131,0.03129490495823708,0.02558281245084754,0.99912567625076,-0.01141322460056246,0.030866800652068878,0.025691400355553128,-0.98,0.375,-5.894,3.0908386400693706,-0.06230637487175592,-0.021263327865551053,3.091067770949614,-0.0631632838459313,-0.02135821624052103,0.98,-0.3750000000000001,-5.894,0
0.5076858017924557,-0.1130324576995373,0.12090940962018216,0.5072254771689145,-0.11301081240858964,0.1235749436067006,0.9991169298701721,-0.011467740734830131,0.03129490495823708,0.02558281245084754,0.99912567625076,-0.01141322460056246,0.030866800652068878,0.025691400355553128,-0.945,0.382,-5.868,3.0908386400693706,-0.06230637487175592,-0.021263327865551053,3.091067770949614,-0.0631632838459313,-0.02135821624052103,0.945,-0.3820000000000001,-5.868,0
0.5076858017924557,-0.1130324576995373,0.12125537576828421,0.5072254771689145,-0.11301081240858964,0.1235749436067006,0.9991169298701721,-0.011467740734830131,0.03129490495823708,0.02558281245084754,0.99912567625076,-0.01141322460056246,0.030866800652068878,0.025691400355553128,-0.9,0.396,-5.84,3.0908386400693706,-0.06230637487175592,-0.021263327865551053,3.091067770949614,-0.0631632838459313,-0.02135821624052103,0.9,-0.39600000000000013,-5.84,0
0.5076858017924557,-0.1130324576995373,0.12159961845652316,0.5072380614955955,-0.11301257422671496,0.12359275936730935,0.9991169298701721,-0.011467740734830131,0.03129490495823708,0.02558281245084754,0.999125076887742,-0.011414327999056135,0.030885872226217848,0.025691298549163598,-0.922,0.358,-5.806,3.0908392590887077,-0.062344576190324505,-0.021264598733939526,3.091067770949614,-0.0631632838459313,-0.02135821624052103,0.922,-0.3580000000000001,-5.806,0
0.5076858017924557,-0.1130324576995373,0.1219404611447621,0.5072380614955955,-0.11301257422671496,0.12359275936730935,0.9991169298701721,-0.011467740734830131,0.03129490495823708,0.02558281245084754,0.999125076887742,-0.011414327999056135,0.030885872226217848,0.025691298549163598,-0.841,0.424,-5.725,3.0908392590887077,-0.062344576190324505,-0.021264598733939526,3.091067770949614,-0.0631632838459313,-0.02135821624052103,0.841,-0.4240000000000001,-5.725,0
0.5076858017924557,-0.1130324576995373,0.12227320383300105,0.5072606817770668,-0.11301460596432662,0.12362056222824211,0.9991169298701721,-0.011467740734830131,0.03129490495823708,0.02558281245084754,0.999124126030956,-0.011410607271442328,0.030915001805183744,0.02569489370073014,-0.757,0.41,-5.676,3.090832352593799,-0.062402729534905436,-0.0212554803193504,3.091067770949614,-0.0631632838459313,-0.02135821624052103,0.757,-0.4100000000000001,-5.676,0
0.5076858017924557,-0.1130324576995373,0.12260290713107198,0.5072606817770668,-0.11301460596432662,0.12362056222824211,0.9991169298701721,-0.011467740734830131,0.03129490495823708,0.02558281245084754,0.999124126030956,-0.011410607271442328,0.030915001805183744,0.02569489370073014,-0.761,0.394,-5.538,3.090832352593799,-0.062402729534905436,-0.0212554803193504,3.091067770949614,-0.0631632838459313,-0.02135821624052103,0.761,-0.39400000000000013,-5.538,0
0.5076858017924557,-0.1130324576995373,0.12291881042914292,0.5074458403159476,-0.11304518210676714,0.12380773971975234,0.9991169298701721,-0.011467740734830131,0.03129490495823708,0.02558281245084754,0.9991170446470687,-0.011412443494430994,0.03112016946246066,0.025721748695246016,-0.722,0.474,-5.468,3.0907823821649782,-0.06281377737610706,-0.021247301571544,3.091067770949614,-0.0631632838459313,-0.02135821624052103,0.7219999999999999,-0.4740000000000001,-5.468,0
0.5076858017924557,-0.1130324576995373,0.12322681764756233,0.5074458403159476,-0.11304518210676714,0.12380773971975234,0.9991169298701721,-0.011467740734830131,0.03129490495823708,0.02558281245084754,0.9991170446470687,-0.011412443494430994,0.03112016946246066,0.025721748695246016,-0.701,0.475,-5.37,3.0907823821649782,-0.06281377737610706,-0.021247301571544,3.091067770949614,-0.0631632838459313,-0.02135821624052103,0.7009999999999998,-0.4750000000000001,-5.37,0
0.5076858017924557,-0.1130324576995373,0.12292502486598175,0.5075075107332826,-0.11305379627525544,0.12389893010458955,0.9991169298701721,-0.011467740734830131,0.03129490495823708,0.02558281245084754,0.9991139946948708,-0.01141870135853699,0.03121323420928058,0.025724675853472358,-0.676,0.433,-5.316,3.090778596790694,-0.06300030986379511,-0.021255032505399757,3.091067770949614,-0.0631632838459313,-0.02135821624052103,0.676,-0.43300000000000005,-5.316,0
0.5076858017924557,-0.1130324576995373,0.12261783208440118,0.5075485732638467,-0.1130514780391373,0.12398014993297973,0.9991169298701721,-0.011467740734830131,0.03129490495823708,0.02558281245084754,0.9991114982910432,-0.011417619417216234,0.03129588693685834,0.025721692865154733,-0.637,0.484,-5.206,3.090786001135807,-0.06316551742981268,-0.02124895567948117,3.091067770949614,-0.0631632838459313,-0.02135821624052103,0.6369999999999999,-0.48400000000000004,-5.206,0
0.5076858017924557,-0.1130324576995373,0.1222903611447621,0.5075485732638467,-0.1130514780391373,0.12398014993297973,0.9991169298701721,-0.011467740734830131,0.03129490495823708,0.02558281245084754,0.9991114982910432,-0.011417619417216234,0.03129588693685834,0.025721692865154733,-0.648,0.482,-5.151,3.090786001135807,-0.06316551742981268,-0.02124895567948117,3.091067770949614,-0.0631632838459313,-0.02135821624052103,0.6479999999999999,-0.48200000000000004,-5.151,0
0.5076858017924557,-0.1130324576995373,0.12195739020512303,0.5075903347380991,-0.1130509890995254,0.12406306113740556,0.9991169298701721,-0.011467740734830131,0.03129490495823708,0.02558281245084754,0.9991089517300408,-0.011419902375105314,0.03137880432976122,0.025718575286464332,-0.553,0.471,-5.054,3.090793891961536,-0.06333142302462229,-0.0212496137502022,3.091067770949614,-0.0631632838459313,-0.02135821624052103,0.5529999999999999,-0.47100000000000003,-5.054,0
0.5076858017924557,-0.1130324576995373,0.12161939256977768,0.5075903347380991,-0.1130509890995254,0.12406306113740556,0.9991169298701721,-0.011467740734830131,0.03129490495823708,0.02558281245084754,0.9991089517300408,-0.011419902375105314,0.03137880432976122,0.025718575286464332,-0.57,0.488,-4.991,3.090793891961536,-0.06333142302462229,-0.0212496137502022,3.091067770949614,-0.0631632838459313,-0.02135821624052103,0.5699999999999998,-0.48800000000000004,-4.991,0
0.5076858017924557,-0.1130324576995373,0.12127509493443232,0.5075903347380991,-0.1130509890995254,0.12406306113740556,0.9991169298701721,-0.011467740734830131,0.03129490495823708,0.02558281245084754,0.9991089517300408,-0.011419902375105314,0.03137880432976122,0.025718575286464332,-0.564,0.467,-4.97,3.090793891961536,-0.06333142302462229,-0.0212496137502022,3.091067770949614,-0.0631632838459313,-0.02135821624052103,0.5639999999999998,-0.4670000000000001,-4.97,0
0.5076858017924557,-0.1130324576995373,0.12092869729908697,0.5076331603404701,-0.11305640062815907,0.12413733563186546,0.9991169298701721,-0.011467740734830131,0.03129490495823708,0.02558281245084754,0.9991065507882717,-0.011424159229913352,0.031453804556180714,0.025718339946639933,-0.552,0.465,-4.935,3.090795990083578,-0.06348165425866131,-0.02125443508745519,3.091067770949614,-0.0631632838459313,-0.02135821624052103,0.5519999999999999,-0.4650000000000001,-4.935,0
0.5076858017924557,-0.1130324576995373,0.1205558065087945,0.5076331603404701,-0.11305640062815907,0.12413733563186546,0.9991169298701721,-0.011467740734830131,0.03129490495823708,0.02558281245084754,0.9991065507882717,-0.011424159229913352,0.031453804556180714,0.025718339946639933,-0.59,0.448,-4.928,3.090795990083578,-0.06348165425866131,-0.02125443508745519,3.091067770949614,-0.0631632838459313,-0.02135821624052103,0.59,-0.44800000000000006,-4.928,0
0.5076858017924557,-0.1130324576995373,0.12018221571850203,0.5076580881767896,-0.1130607018347775,0.12417689310297658,0.9991169298701721,-0.011467740734830131,0.03129490495823708,0.02558281245084754,0.9991052298151747,-0.01142747586165413,0.031494066778588084,0.0257189109721543,-0.58,0.467,-4.938,3.090795784993051,-0.06356236999175081,-0.021259044553840784,3.091067770949614,-0.0631632838459313,-0.02135821624052103,0.5799999999999998,-0.4670000000000001,-4.938,0
0.5076858017924557,-0.1130324576995373,0.11980623973841492,0.5076580881767896,-0.1130607018347775,0.12417689310297658,0.9991169298701721,-0.011467740734830131,0.03129490495823708,0.02558281245084754,0.9991052298151747,-0.01142747586165413,0.031494066778588084,0.0257189109721543,-0.551,0.485,-4.935,3.090795784993051,-0.06356236999175081,-0.021259044553840784,3.091067770949614,-0.0631632838459313,-0.02135821624052103,0.5509999999999999,-0.48500000000000004,-4.935,0
0.5076858017924557,-0.1130324576995373,0.1194299637583278,0.5076753056506533,-0.11306175888486097,0.12419875531398053,0.9991169298701721,-0.011467740734830131,0.03129490495823708,0.02558281245084754,0.9991044417857042,-0.011426620420702699,0.03151806989389186,0.02572049946140524,-0.569,0.477,-4.924,3.0907929818773843,-0.06361037290422554,-0.02125604048191311,3.091067770949614,-0.0631632838459313,-0.02135821624052103,0.5689999999999998,-0.47700000000000004,-4.924,0
0.5076858017924557,-0.1130324576995373,0.1190525877782407,0.5076753056506533,-0.11306175888486097,0.12419875531398053,0.9991169298701721,-0.011467740734830131,0.03129490495823708,0.02558281245084754,0.9991044417857042,-0.011426620420702699,0.03151806989389186,0.02572049946140524,-0.538,0.475,-4.938,3.0907929818773843,-0.06361037290422554,-0.02125604048191311,3.091067770949614,-0.0631632838459313,-0.02135821624052103,0.5379999999999999,-0.47500000000000003,-4.938,0
0.5076858017924557,-0.1130324576995373,0.11867655579317536,0.5076753056506533,-0.11306175888486097,0.12419875531398053,0.9991169298701721,-0.011467740734830131,0.03129490495823708,0.02558281245084754,0.9991044417857042,-0.011426620420702699,0.03151806989389186,0.02572049946140524,-0.575,0.487,-4.951,3.0907929818773843,-0.06361037290422554,-0.02125604048191311,3.091067770949614,-0.0631632838459313,-0.02135821624052103,0.5749999999999998,-0.48700000000000004,-4.951,0
0.5076858017924557,-0.1130324576995373,0.11830182380811002,0.5076767143772445,-0.1130597793580638,0.12419881814468531,0.9991169298701721,-0.011467740734830131,0.03129490495823708,0.02558281245084754,0.9991044753215199,-0.011424961477192824,0.03151755198924838,0.0257205683663024,-0.574,0.459,-4.965,3.0907927288297063,-0.06360925411058702,-0.021252739699535846,3.091067770949614,-0.0631632838459313,-0.02135821624052103,0.5739999999999998,-0.4590000000000001,-4.965,0
0.5076858017924557,-0.1130324576995373,0.11790087514600674,0.5076767143772445,-0.1130597793580638,0.12419881814468531,0.9991169298701721,-0.011467740734830131,0.03129490495823708,0.02558281245084754,0.9991044753215199,-0.011424961477192824,0.03151755198924838,0.0257205683663024,-0.564,0.477,-4.944,3.0907927288297063,-0.06360925411058702,-0.021252739699535846,3.091067770949614,-0.0631632838459313,-0.02135821624052103,0.5639999999999998,-0.47700000000000004,-4.944,0
0.5076858017924557,-0.1130324576995373,0.11749782648390344,0.507674811592576,-0.11305911836416686,0.12419776047115477,0.9991169298701721,-0.011467740734830131,0.03129490495823708,0.02558281245084754,0.9991045239781681,-0.01142451434786265,0.031516445797986035,0.025720232411696714,-0.61,0.49,-4.941,3.0907933534858003,-0.06360701156406114,-0.02125192056295696,3.091067770949614,-0.0631632838459313,-0.02135821624052103,0.6099999999999999,-0.49000000000000005,-4.941,0
0.5076858017924557,-0.1130324576995373,0.11709447782180016,0.507674811592576,-0.11305911836416686,0.12419776047115477,0.9991169298701721,-0.011467740734830131,0.03129490495823708,0.02558281245084754,0.9991045239781681,-0.01142451434786265,0.031516445797986035,0.025720232411696714,-0.611,0.491,-4.938,3.0907933534858003,-0.06360701156406114,-0.02125192056295696,3.091067770949614,-0.0631632838459313,-0.02135821624052103,0.6109999999999999,-0.49100000000000005,-4.938,0
0.5076858017924557,-0.1130324576995373,0.11665133942727621,0.5076720159164696,-0.11306033387783218,0.12419376846461344,0.9991169298701721,-0.011467740734830131,0.03129490495823708,0.02558281245084754,0.9991046514956523,-0.0114260652023755,0.0315121325109468,0.025719875018344555,-0.608,0.453,-4.973,3.0907940903207787,-0.06359845506003386,-0.02125526276369746,3.091067770949614,-0.0631632838459313,-0.02135821624052103,0.608,-0.45300000000000007,-4.973,0
0.5076858017924557,-0.1130324576995373,0.11621170103275226,0.5076720159164696,-0.11306033387783218,0.12419376846461344,0.9991169298701721,-0.011467740734830131,0.03129490495823708,0.02558281245084754,0.9991046514956523,-0.0114260652023755,0.0315121325109468,0.025719875018344555,-0.632,0.456,-4.982,3.0907940903207787,-0.06359845506003386,-0.02125526276369746,3.091067770949614,-0.0631632838459313,-0.02135821624052103,0.6319999999999999,-0.45600000000000007,-4.982,0
0.5076858017924557,-0.1130324576995373,0.11576804664569564,0.5076720159164696,-0.11306033387783218,0.12419376846461344,0.9991169298701721,-0.011467740734830131,0.03129490495823708,0.02558281245084754,0.9991046514956523,-0.0114260652023755,0.0315121325109468,0.025719875018344555,-0.626,0.457,-5.013,3.0907940903207787,-0.06359845506003386,-0.02125526276369746,3.091067770949614,-0.0631632838459313,-0.02135821624052103,0.6259999999999999,-0.4570000000000001,-5.013,0
0.5076858017924557,-0.1130324576995373,0.11532749225863902,0.5076605186023451,-0.11306020581638933,0.12418111270438581,0.9991169298701721,-0.011467740734830131,0.03129490495823708,0.02558281245084754,0.9991051451642371,-0.01142621602000669,0.03149725497875327,0.025718854857963436,-0.654,0.46,-5.01,3.0907958749178843,-0.06356868201608197,-0.021256367243409836,3.091067770949614,-0.0631632838459313,-0.02135821624052103,0.664,-0.45100000000000007,-5.011,0
0.5076858017924557,-0.1130324576995373,0.1148850448410908,0.5076605186023451,-0.11306020581638933,0.12418111270438581,0.9991169298701721,-0.011467740734830131,0.03129490495823708,0.02558281245084754,0.9991051451642371,-0.01142621602000669,0.03149725497875327,0.025718854857963436,-0.686,0.456,-5.069,3.0907958749178843,-0.06356868201608197,-0.021256367243409836,3.091067770949614,-0.0631632838459313,-0.02135821624052103,0.6859999999999999,-0.4560000000000001,-5.069,0
0.5076858017924557,-0.1130324576995373,0.11444979742354258,0.5075973024434727,-0.11304799817951354,0.12411968174281418,0.9991169298701721,-0.011467740734830131,0.03129490495823708,0.02558281245084754,0.9991075341363012,-0.011425875276841232,0.031429944095320926,0.025708545136435754,-0.733,0.458,-5.172,3.0908152922518615,-0.06343380591797905,-0.021259676826058258,3.091067770949614,-0.0631632838459313,-0.02135821624052103,0.7329999999999999,-0.45800000000000013,-5.172,0
0.5076858017924557,-0.1130324576995373,0.11402355000599436,0.5075973024434727,-0.11304799817951354,0.12411968174281418,0.9991169298701721,-0.011467740734830131,0.03129490495823708,0.02558281245084754,0.9991075341363012,-0.011425875276841232,0.031429944095320926,0.025708545136435754,-0.744,0.462,-5.251,3.0908152922518615,-0.06343380591797905,-0.021259676826058258,3.091067770949614,-0.0631632838459313,-0.02135821624052103,0.7439999999999999,-0.46200000000000013,-5.251,0
0.5076858017924557,-0.1130324576995373,0.1136054577222358,0.5075181783749387,-0.11303338041493746,0.12403249528521734,0.9991169298701721,-0.011467740734830131,0.03129490495823708,0.02558281245084754,0.9991107801599698,-0.011422118415060462,0.031336139164369656,0.02569857261341533,-0.788,0.386,-5.393,3.0908333371667744,-0.06324576887580724,-0.02125743412836957,3.091067770949614,-0.0631632838459313,-0.02135821624052103,0.788,-0.3860000000000001,-5.393,0
0.5076858017924557,-0.1130324576995373,0.11320156543847726,0.5074530461803836,-0.11302964666862045,0.123908305124972,0.9991169298701721,-0.011467740734830131,0.03129490495823708,0.02558281245084754,0.999114708014001,-0.011414630529711587,0.031210758360166155,0.02570177185385176,-0.838,0.397,-5.499,3.0908241844772193,-0.06299466355586948,-0.02124844933267097,3.091067770949614,-0.0631632838459313,-0.02135821624052103,0.838,-0.39700000000000013,-5.499,0
0.5076858017924557,-0.1130324576995373,0.11280355006822212,0.5074530461803836,-0.11302964666862045,0.123908305124972,0.9991169298701721,-0.011467740734830131,0.03129490495823708,0.02558281245084754,0.999114708014001,-0.011414630529711587,0.031210758360166155,0.02570177185385176,-0.875,0.425,-5.638,3.0908241844772193,-0.06299466355586948,-0.02124844933267097,3.091067770949614,-0.0631632838459313,-0.02135821624052103,0.866,-0.4440000000000001,-5.635,0
0.5076858017924557,-0.1130324576995373,0.112419434697967,0.507389530017838,-0.11303346273911628,0.12377203393169806,0.9991169298701721,-0.011467740734830131,0.03129490495823708,0.02558281245084754,0.9991187291629791,-0.011415194956683706,0.031075543452572747,0.025709045738829855,-0.946,0.367,-5.735,3.0908071972325044,-0.06272438434317433,-0.021255822859317267,3.091067770949614,-0.0631632838459313,-0.02135821624052103,0.946,-0.3670000000000001,-5.735,0
0.5076858017924557,-0.1130324576995373,0.11203651279379775,0.507389530017838,-0.11303346273911628,0.12377203393169806,0.9991169298701721,-0.011467740734830131,0.03129490495823708,0.02558281245084754,0.9991187291629791,-0.011415194956683706,0.031075543452572747,0.025709045738829855,-0.951,0.394,-5.848,3.0908071972325044,-0.06272438434317433,-0.021255822859317267,3.091067770949614,-0.0631632838459313,-0.02135821624052103,0.951,-0.39400000000000013,-5.848,0
0.5076858017924557,-0.1130324576995373,0.1116648908896285,0.5073140157728645,-0.11303371014788635,0.12361930789441503,0.9991169298701721,-0.011467740734830131,0.03129490495823708,0.02558281245084754,0.9991233692551542,-0.01141123421647196,0.030922778603303037,0.02571467634635739,-1.025,0.388,-6.002,3.090792898497122,-0.06241873757865472,-0.021255113145615498,3.091067770949614,-0.0631632838459313,-0.02135821624052103,1.025,-0.3880000000000001,-6.002,0
0.5076858017924557,-0.1130324576995373,0.11130866898545924,0.5073140157728645,-0.11303371014788635,0.12361930789441503,0.9991169298701721,-0.011467740734830131,0.03129490495823708,0.02558281245084754,0.9991233692551542,-0.01141123421647196,0.030922778603303037,0.02571467634635739,-1.023,0.365,-6.149,3.090792898497122,-0.06241873757865472,-0.021255113145615498,3.091067770949614,-0.0631632838459313,-0.02135821624052103,1.023,-0.3650000000000001,-6.149,0
0.5076858017924557,-0.1130324576995373,0.1109594308398463,0.5073140157728645,-0.11303371014788635,0.12361930789441503,0.9991169298701721,-0.011467740734830131,0.03129490495823708,0.02558281245084754,0.9991233692551542,-0.01141123421647196,0.030922778603303037,0.02571467634635739,-1.13,0.391,-6.311,3.090792898497122,-0.06241873757865472,-0.021255113145615498,3.091067770949614,-0.0631632838459313,-0.02135821624052103,1.13,-0.3910000000000001,-6.311,0
0.5076858017924557,-0.1130324576995373,0.11062639269423337,0.5072308688824869,-0.1130299621889376,0.12346407251368366,0.9991169298701721,-0.011467740734830131,0.03129490495823708,0.02558281245084754,0.9991281338186508,-0.01140689682526034,0.0307668160146144,0.025718554079591276,-1.097,0.326,-6.404,3.0907820294364874,-0.06210663967010713,-0.021253921809408022,3.091067770949614,-0.0631632838459313,-0.02135821624052103,1.097,-0.3260000000000001,-6.404,0
0.5076858017924557,-0.1130324576995373,0.11030265454862043,0.5072308688824869,-0.1130299621889376,0.12346407251368366,0.9991169298701721,-0.011467740734830131,0.03129490495823708,0.02558281245084754,0.9991281338186508,-0.01140689682526034,0.0307668160146144,0.025718554079591276,-1.218,0.363,-6.565,3.0907820294364874,-0.06210663967010713,-0.021253921809408022,3.091067770949614,-0.0631632838459313,-0.02135821624052103,1.218,-0.36300000000000016,-6.565,0
0.5076858017924557,-0.1130324576995373,0.10997232194127755,0.5070221089510415,-0.11301449524182079,0.12313639896192644,0.9991169298701721,-0.011467740734830131,0.03129490495823708,0.02558281245084754,0.9991386013326203,-0.011401109475560181,0.030431257217212456,0.02571370625552442,-1.229,0.292,-6.694,3.090785286693182,-0.06143505518683314,-0.02125928134633593,3.091067770949614,-0.0631632838459313,-0.02135821624052103,1.229,-0.29200000000000015,-6.694,0
0.5076858017924557,-0.1130324576995373,0.10965488933393469,0.5070221089510415,-0.11301449524182079,0.12313639896192644,0.9991169298701721,-0.011467740734830131,0.03129490495823708,0.02558281245084754,0.9991386013326203,-0.011401109475560181,0.030431257217212456,0.02571370625552442,-1.277,0.347,-6.797,3.090785286693182,-0.06143505518683314,-0.02125928134633593,3.091067770949614,-0.0631632838459313,-0.02135821624052103,1.277,-0.34700000000000014,-6.797,0
0.5076858017924557,-0.1130324576995373,0.10934332611053706,0.5069457258820173,-0.11301121137728062,0.12298362357231371,0.9991169298701721,-0.011467740734830131,0.03129490495823708,0.02558281245084754,0.9991431365869069,-0.011397029856687547,0.030279692748549664,0.025718215424571183,-1.326,0.312,-6.986,3.090773244940542,-0.0611317856834493,-0.021258357238134233,3.091067770949614,-0.0631632838459313,-0.02135821624052103,1.326,-0.31200000000000017,-6.986,0
0.5076858017924557,-0.1130324576995373,0.10965066288713941,0.5068791717820416,-0.1130162947327544,0.12281836655768769,0.9991169298701721,-0.011467740734830131,0.03129490495823708,0.02558281245084754,0.9991477733907421,-0.011390290451480895,0.030118061477222964,0.02573085037852056,-1.345,0.31,-7.138,3.0907445785504235,-0.0608084197684304,-0.021252116486426133,3.091067770949614,-0.0631632838459313,-0.02135821624052103,1.34,-0.29900000000000015,-7.123,0
0.5076858017924557,-0.1130324576995373,0.10997319966374178,0.5068791717820416,-0.1130162947327544,0.12281836655768769,0.9991169298701721,-0.011467740734830131,0.03129490495823708,0.02558281245084754,0.9991477733907421,-0.011390290451480895,0.030118061477222964,0.02573085037852056,-1.387,0.31,-7.306,3.0907445785504235,-0.0608084197684304,-0.021252116486426133,3.091067770949614,-0.0631632838459313,-0.02135821624052103,1.387,-0.31000000000000016,-7.306,0
0.5076858017924557,-0.1130324576995373,0.11030388678259678,0.5067854160319805,-0.11302320403668248,0.12260033379750171,0.9991169298701721,-0.011467740734830131,0.03129490495823708,0.02558281245084754,0.9991538953181592,-0.011389199029924215,0.02990276288685255,0.02574471721461441,-1.473,0.274,-7.454,3.090712808880372,-0.06037802551088052,-0.021259787121340037,3.091067770949614,-0.0631632838459313,-0.02135821624052103,1.473,-0.2740000000000002,-7.454,0
0.5076858017924557,-0.1130324576995373,0.11064937390145178,0.5067854160319805,-0.11302320403668248,0.12260033379750171,0.9991169298701721,-0.011467740734830131,0.03129490495823708,0.02558281245084754,0.9991538953181592,-0.011389199029924215,0.02990276288685255,0.02574471721461441,-1.499,0.277,-7.635,3.090712808880372,-0.06037802551088052,-0.021259787121340037,3.091067770949614,-0.0631632838459313,-0.02135821624052103,1.499,-0.2770000000000002,-7.635,0
0.5076858017924557,-0.1130324576995373,0.11100602262578282,0.506701881722543,-0.11302441047995641,0.12237953111804972,0.9991169298701721,-0.011467740734830131,0.03129490495823708,0.02558281245084754,0.9991597815856728,-0.011376791004626614,0.029694904841293293,0.025762340589807753,-1.487,0.319,-7.754,3.0906729658496337,-0.05996202002056683,-0.021244218560194934,3.091067770949614,-0.0631632838459313,-0.02135821624052103,1.487,-0.3190000000000002,-7.754,0
