0.5193803466705125,-0.09129941789994295,-0.036769175628595,0.5193712546729554,-0.09133587803171718,-0.03676920383251894,0.9984082856747031,-0.004046412831375283,-0.055178383304354754,-0.010948408798365594,0.9984056729330683,-0.0040796698702979155,-0.05517931091155988,-0.010949831866696486,-0.134,0.008,0.059,-3.120044856105409,0.1104967324122697,-0.006980550555226442,-3.120044171994705,0.11049441451928183,-0.006913931172555511,0.134,-0.008000000000000016,0.059,0
0.5193803466705125,-0.09129941789994295,-0.036769175628595,0.5193712546729554,-0.09133587803171718,-0.03676920383251894,0.9984082856747031,-0.004046412831375283,-0.055178383304354754,-0.010948408798365594,0.9984056729330683,-0.0040796698702979155,-0.05517931091155988,-0.010949831866696486,-0.134,0.009,0.049,-3.120044856105409,0.1104967324122697,-0.006980550555226442,-3.120044171994705,0.11049441451928183,-0.006913931172555511,0.134,-0.009000000000000015,0.049,0
0.5193803466705125,-0.09129941789994295,-0.036769175628595,0.5193712214402699,-0.09134192473089511,-0.036767758156405234,0.9984082856747031,-0.004046412831375283,-0.055178383304354754,-0.010948408798365594,0.9984057545688234,-0.0040849714759875295,-0.05517734235943644,-0.010950331666482349,-0.15,0.01,0.043,-3.120044431704243,0.11049290745475275,-0.0069911876645262026,-3.120044171994705,0.11049441451928183,-0.006913931172555511,0.15,-0.01000000000000002,0.043,0
0.5193803466705125,-0.09129941789994295,-0.036769175628595,0.5193648301945534,-0.09134810264535444,-0.036771143102616505,0.9984082856747031,-0.004046412831375283,-0.055178383304354754,-0.010948408798365594,0.9984054650809256,-0.004090383887277443,-0.05518219906761277,-0.010950232125460238,-0.141,-0.019,0.046,-3.120045255660018,0.11050275119121364,-0.007001971104214417,-3.120044171994705,0.11049441451928183,-0.006913931172555511,0.141,0.018999999999999982,0.046,0
0.5193803466705125,-0.09129941789994295,-0.036769175628595,0.5193443351997112,-0.09136804760134107,-0.03677982346493275,0.9984082856747031,-0.004046412831375283,-0.055178383304354754,-0.010948408798365594,0.9984046362238147,-0.004111670882670498,-0.05519569688576008,-0.010949803429318334,-0.154,0.0,0.039,-3.120048545699011,0.11053024267132815,-0.00704450392949049,-3.120044171994705,0.11049441451928183,-0.006913931172555511,0.154,-1.8859560706869238e-17,0.039,0
0.5193803466705125,-0.09129941789994295,-0.036769175628595,0.5193253911798016,-0.09138094049140397,-0.03678878576322922,0.9984082856747031,-0.004046412831375283,-0.055178383304354754,-0.010948408798365594,0.99840374536266,-0.004127105133634118,-0.055210227912641914,-0.010951967985229755,-0.132,0.009,0.04,-3.1200459804821166,0.11055969563922513,-0.00707496824112753,-3.120044171994705,0.11049441451928183,-0.006913931172555511,0.132,-0.009000000000000015,0.04,0
0.5193803466705125,-0.09129941789994295,-0.036769175628595,0.5193073020078464,-0.09140762599493882,-0.03679506222753215,0.9984082856747031,-0.004046412831375283,-0.055178383304354754,-0.010948408798365594,0.9984030627068609,-0.0041526045452668706,-0.05522025022244043,-0.01095403292347987,-0.142,0.0,0.062,-3.120044713940538,0.11058033459150803,-0.0071257600182475555,-3.120044171994705,0.11049441451928183,-0.006913931172555511,0.142,-1.7389984547892414e-17,0.062,0
0.5193803466705125,-0.09129941789994295,-0.036769175628595,0.5192881214807062,-0.09143382508729153,-0.03680314714250038,0.9984082856747031,-0.004046412831375283,-0.055178383304354754,-0.010948408798365594,0.9984022803013575,-0.004180015800923107,-0.05523201528389459,-0.01095560415482982,-0.122,0.008,0.068,-3.1200446615052133,0.11060450201523565,-0.007180411468549615,-3.120044171994705,0.11049441451928183,-0.006913931172555511,0.122,-0.008000000000000016,0.068,0
0.5193803466705125,-0.09129941789994295,-0.036769175628595,0.5192785905202533,-0.0914459766567895,-0.03680478791376163,0.9984082856747031,-0.004046412831375283,-0.055178383304354754,-0.010948408798365594,0.9984019766612955,-0.00419094485718598,-0.05523644644784328,-0.010956759610329008,-0.141,0.009,0.062,-3.1200435767696715,0.11061362152218435,-0.007202148003327825,-3.120044171994705,0.11049441451928183,-0.006913931172555511,0.141,-0.009000000000000017,0.062,0
0.5193803466705125,-0.09129941789994295,-0.036769175628595,0.5192689310988486,-0.0914536193761584,-0.03680892556519705,0.9984082856747031,-0.004046412831375283,-0.055178383304354754,-0.010948408798365594,0.9984015504445097,-0.004200858728939177,-0.0552432969102005,-0.01095726331482775,-0.141,0.018,0.073,-3.120043700711707,0.11062756013695446,-0.007221866844004991,-3.120044171994705,0.11049441451928183,-0.006913931172555511,0.141,-0.018000000000000016,0.073,0
0.5193803466705125,-0.09129941789994295,-0.036769175628595,0.5192675573942486,-0.09145413340019116,-0.036809369106732825,0.9984082856747031,-0.004046412831375283,-0.055178383304354754,-0.010948408798365594,0.9984015039217835,-0.004202448007438538,-0.055243931673658424,-0.010957692620148875,-0.139,0.0,0.059,-3.1200430179708576,0.11062886893169559,-0.007224998856891382,-3.120044171994705,0.11049441451928183,-0.006913931172555511,0.139,-1.7022590508148212e-17,0.059,0
0.5193803466705125,-0.09129941789994295,-0.036769175628595,0.5192567589137015,-0.09146185939375802,-0.036815888060602486,0.9984082856747031,-0.004046412831375283,-0.055178383304354754,-0.010948408798365594,0.9984010558097683,-0.004208550714569948,-0.05525186355687,-0.010956187700263166,-0.134,0.009,0.04,-3.120046759550855,0.11064487677023707,-0.0072372615318387346,-3.120044171994705,0.11049441451928183,-0.006913931172555511,0.134,-0.009000000000000015,0.04,0
0.5193803466705125,-0.09129941789994295,-0.036769175628595,0.5192563677214787,-0.09146402950504914,-0.03681360710086115,0.9984082856747031,-0.004046412831375283,-0.055178383304354754,-0.010948408798365594,0.9984010176798795,-0.004212509974475353,-0.05525185902796684,-0.010958163436287199,-0.14,0.009,0.052,-3.1200432300607863,0.11064496747044734,-0.007244996414582226,-3.120044171994705,0.11049441451928183,-0.006913931172555511,0.14,-0.009000000000000017,0.052,0
0.5193803466705125,-0.09129941789994295,-0.036769175628595,0.5192544491028612,-0.09146633508619886,-0.03681556523242835,0.9984082856747031,-0.004046412831375283,-0.055178383304354754,-0.010948408798365594,0.9984009505330325,-0.00421112565218819,-0.05525334242771543,-0.010957333733524657,-0.148,-0.01,0.077,-3.12004475048456,0.11064790272800212,-0.007242276452499626,-3.120044171994705,0.11049441451928183,-0.006913931172555511,0.148,0.009999999999999983,0.077,0
0.5193803466705125,-0.09129941789994295,-0.036769175628595,0.5192519581528595,-0.09146974173435664,-0.03681636750520015,0.9984082856747031,-0.004046412831375283,-0.055178383304354754,-0.010948408798365594,0.9984008869386404,-0.004214112404075891,-0.0552544642403127,-0.010956323045617125,-0.144,0.009,0.051,-3.120047119105325,0.11065020676316299,-0.007248366217763159,-3.120044171994705,0.11049441451928183,-0.006913931172555511,0.144,-0.009000000000000017,0.051,0
0.5193803466705125,-0.09129941789994295,-0.036769175628595,0.5192503295463586,-0.0914711094460111,-0.036816644421432815,0.9984082856747031,-0.004046412831375283,-0.055178383304354754,-0.010948408798365594,0.9984007659391582,-0.0042154376493513356,-0.055256436373141184,-0.010956893409878496,-0.132,0.0,0.058,-3.1200461301696443,0.11065418955539838,-0.007250924101088736,-3.120044171994705,0.11049441451928183,-0.006913931172555511,0.132,-1.6165337748745064e-17,0.058,0
0.5193803466705125,-0.09129941789994295,-0.036769175628595,0.5192507098474063,-0.09147475123073599,-0.03681598969990604,0.9984082856747031,-0.004046412831375283,-0.055178383304354754,-0.010948408798365594,0.9984008359684118,-0.0042195095023377606,-0.05525523089982558,-0.010955024030329783,-0.124,0.018,0.061,-3.1200503335184995,0.11065184934512796,-0.0072593381811279865,-3.120044171994705,0.11049441451928183,-0.006913931172555511,0.124,-0.018000000000000013,0.061,0
0.5193803466705125,-0.09129941789994295,-0.036769175628595,0.5192499977406235,-0.09148048175283424,-0.03681558016309669,0.9984082856747031,-0.004046412831375283,-0.055178383304354754,-0.010948408798365594,0.998400899263565,-0.004220069059556618,-0.055254324196622816,-0.010953613127678846,-0.144,0.0,0.048,-3.120053226310058,0.11065003508982202,-0.0072606383539298176,-3.120044171994705,0.11049441451928183,-0.006913931172555511,0.144,-0.009000000000000017,0.051,0
0.5193803466705125,-0.09129941789994295,-0.036769175628595,0.5192483330347102,-0.09148890402512098,-0.03681509259637772,0.9984082856747031,-0.004046412831375283,-0.055178383304354754,-0.010948408798365594,0.9984008883693417,-0.004228274697479388,-0.055254144706343454,-0.010952347007236735,-0.156,0.01,0.04,-3.1200566824381304,0.11064984336266388,-0.007277269131460912,-3.120044171994705,0.11049441451928183,-0.006913931172555511,0.156,-0.01000000000000002,0.04,0
0.5193803466705125,-0.09129941789994295,-0.036769175628595,0.5192486219406498,-0.09148931545780524,-0.03681465390622232,0.9984082856747031,-0.004046412831375283,-0.055178383304354754,-0.010948408798365594,0.99840092743159,-0.00422703092708826,-0.05525387500872879,-0.010950626724416636,-0.128,0.009,0.052,-3.120059999378275,0.11064926381470332,-0.0072749673081150875,-3.120044171994705,0.11049441451928183,-0.006913931172555511,0.128,-0.009000000000000015,0.052,0
0.5193803466705125,-0.09129941789994295,-0.036769175628595,0.519245424474289,-0.09149156867987446,-0.03681675022648731,0.9984082856747031,-0.004046412831375283,-0.055178383304354754,-0.010948408798365594,0.9984007562938593,-0.0042289371784754,-0.05525684505155759,-0.010950507427334258,-0.148,0.0,0.051,-3.1200604658400954,0.11065525285625069,-0.0072787484397295946,-3.120044171994705,0.11049441451928183,-0.006913931172555511,0.148,-1.8124772627380827e-17,0.051,0
0.5193803466705125,-0.09129941789994295,-0.036769175628595,0.5192458736828514,-0.09149761588654581,-0.036814764561530655,0.9984082856747031,-0.004046412831375283,-0.055178383304354754,-0.010948408798365594,0.9984008102593526,-0.004235509612316754,-0.05525555008164274,-0.010949581383584523,-0.12,0.009,0.041,-3.1200630514375214,0.11065279408294712,-0.00729208337125708,-3.120044171994705,0.11049441451928183,-0.006913931172555511,0.12,-0.009000000000000013,0.041,0
0.5193803466705125,-0.09129941789994295,-0.036769175628595,0.5192444895889536,-0.0914999089976559,-0.03681398982587056,0.9984082856747031,-0.004046412831375283,-0.055178383304354754,-0.010948408798365594,0.9984007482117542,-0.004237395382134968,-0.05525647047040946,-0.010949864710086845,-0.119,-0.001,0.058,-3.1200626965081133,0.11065468029341648,-0.0072958213659794725,-3.120044171994705,0.11049441451928183,-0.006913931172555511,0.119,0.0009999999999999855,0.058,0
0.5193803466705125,-0.09129941789994295,-0.036769175628595,0.5192431672264468,-0.09150220044683641,-0.03681556322661478,0.9984082856747031,-0.004046412831375283,-0.055178383304354754,-0.010948408798365594,0.9984007132267484,-0.004239715329431328,-0.05525707322725277,-0.010949114847315726,-0.131,-0.001,0.079,-3.120064464357126,0.11065593211687347,-0.007300553288762256,-3.120044171994705,0.11049441451928183,-0.006913931172555511,0.131,0.000999999999999984,0.079,0
0.5193803466705125,-0.09129941789994295,-0.036769175628595,0.5192414593737302,-0.0915049932418247,-0.036815404400633495,0.9984082856747031,-0.004046412831375283,-0.055178383304354754,-0.010948408798365594,0.9984006883576472,-0.004239913554150774,-0.055257606822118,-0.010948612864203379,-0.132,0.009,0.051,-3.1200654977198754,0.11065700147588226,-0.007300996268504677,-3.120044171994705,0.11049441451928183,-0.006913931172555511,0.132,-0.009000000000000015,0.051,0
0.5193803466705125,-0.09129941789994295,-0.036769175628595,0.5192423070803348,-0.09150691094385338,-0.03681425852243428,0.9984082856747031,-0.004046412831375283,-0.055178383304354754,-0.010948408798365594,0.9984006990137145,-0.004239664189885216,-0.05525749058674191,-0.010948324341107221,-0.152,0.009,0.061,-3.1200660491418444,0.11065676117799403,-0.007300529800177852,-3.120044171994705,0.11049441451928183,-0.006913931172555511,0.152,-0.009000000000000018,0.061,0
0.5193803466705125,-0.09129941789994295,-0.036769175628595,0.5192424628926817,-0.09151049618849168,-0.03681443275414187,0.9984082856747031,-0.004046412831375283,-0.055178383304354754,-0.010948408798365594,0.9984008142440577,-0.004244124469246159,-0.0552553935441188,-0.010946671810752403,-0.146,0.009,0.059,-3.120069855497401,0.11065264499812595,-0.007309718733840657,-3.120044171994705,0.11049441451928183,-0.006913931172555511,0.146,-0.009000000000000017,0.059,0
0.5193803466705125,-0.09129941789994295,-0.036769175628595,0.5192407106907239,-0.09150965912906359,-0.036814384673971356,0.9984082856747031,-0.004046412831375283,-0.055178383304354754,-0.010948408798365594,0.9984006854129435,-0.004242437834373248,-0.055257549711660275,-0.010948191781050927,-0.144,0.0,0.059,-3.120066624401797,0.11065693842849024,-0.0073061159143336316,-3.120044171994705,0.11049441451928183,-0.006913931172555511,0.144,-1.7634913907721884e-17,0.059,0
0.5193803466705125,-0.09129941789994295,-0.036769175628595,0.5192407483293772,-0.09151200080176139,-0.036814221962565785,0.9984082856747031,-0.004046412831375283,-0.055178383304354754,-0.010948408798365594,0.9984007005622002,-0.004244342072211385,-0.05525748341501579,-0.010946406673797092,-0.13,-0.001,0.088,-3.1200704228514216,0.11065683362317648,-0.007310141806044432,-3.120044171994705,0.11049441451928183,-0.006913931172555511,0.13,0.0009999999999999842,0.088,0
0.5193803466705125,-0.09129941789994295,-0.036769175628595,0.5192420010238302,-0.09150972967927538,-0.03681410726841214,0.9984082856747031,-0.004046412831375283,-0.055178383304354754,-0.010948408798365594,0.9984007263570072,-0.004243779345776095,-0.055256889497698525,-0.010947270201909717,-0.125,0.0,0.037,-3.120068622157694,0.11065563823734066,-0.007308927518856588,-3.120044171994705,0.11049441451928183,-0.006913931172555511,0.125,-1.5308084989341915e-17,0.037,0
0.5193803466705125,-0.09129941789994295,-0.036769175628595,0.5192400708617851,-0.09151269671073248,-0.03681459947482052,0.9984082856747031,-0.004046412831375283,-0.055178383304354754,-0.010948408798365594,0.9984006689908461,-0.004246966028831828,-0.05525779206768242,-0.010946710420268112,-0.119,0.0,0.048,-3.1200701060065694,0.11065751061860142,-0.007315373415923544,-3.120044171994705,0.11049441451928183,-0.006913931172555511,0.119,-1.4573296909853502e-17,0.048,0
0.5193803466705125,-0.09129941789994295,-0.036769175628595,0.5192396383556639,-0.09151187017112218,-0.03681345943803721,0.9984082856747031,-0.004046412831375283,-0.055178383304354754,-0.010948408798365594,0.9984006667969748,-0.004245242880130603,-0.05525778319349182,-0.010947623664332119,-0.131,0.009,0.031,-3.120068079209505,0.11065746238943104,-0.007311809949275503,-3.120044171994705,0.11049441451928183,-0.006913931172555511,0.131,-0.009000000000000015,0.031,0
0.5193803466705125,-0.09129941789994295,-0.036769175628595,0.5192333571992817,-0.09151496684442173,-0.03681754188756556,0.9984082856747031,-0.004046412831375283,-0.055178383304354754,-0.010948408798365594,0.9984003778068847,-0.004249328855631317,-0.0552629019983288,-0.010946555486186813,-0.12,0.008,0.059,-3.1200707056794146,0.11066779527509868,-0.007320031213981356,-3.120044171994705,0.11049441451928183,-0.006913931172555511,0.12,-0.008000000000000014,0.059,0
0.5193803466705125,-0.09129941789994295,-0.036769175628595,0.519234901894833,-0.09151579918038641,-0.03681654045484126,0.9984082856747031,-0.004046412831375283,-0.055178383304354754,-0.010948408798365594,0.9984004753967689,-0.004250274170442471,-0.055261072232085574,-0.010946524911846493,-0.132,0.009,0.05,-3.1200708631851874,0.11066415052251175,-0.00732197206479031,-3.120044171994705,0.11049441451928183,-0.006913931172555511,0.132,-0.009000000000000015,0.05,0
0.5193803466705125,-0.09129941789994295,-0.036769175628595,0.5192349376732,-0.09151810809420263,-0.03681604945160008,0.9984082856747031,-0.004046412831375283,-0.055178383304354754,-0.010948408798365594,0.9984004697558967,-0.004249883547797306,-0.055261339030584763,-0.01094584416577,-0.132,0.0,0.048,-3.120072188907669,0.11066467149125689,-0.0073212574488635725,-3.120044171994705,0.11049441451928183,-0.006913931172555511,0.132,-1.6165337748745064e-17,0.048,0
0.5193803466705125,-0.09129941789994295,-0.036769175628595,0.519231655110247,-0.09151747446073938,-0.03681825372033898,0.9984082856747031,-0.004046412831375283,-0.055178383304354754,-0.010948408798365594,0.9984003024479032,-0.00425135679732192,-0.055264054668994284,-0.010946822083089391,-0.142,0.0,0.049,-3.120070401398767,0.11067014966736159,-0.0073240518745292275,-3.120044171994705,0.11049441451928183,-0.006913931172555511,0.142,-1.7389984547892414e-17,0.049,0
0.5193803466705125,-0.09129941789994295,-0.036769175628595,0.5192333564320648,-0.09152018968861658,-0.036817914013889536,0.9984082856747031,-0.004046412831375283,-0.055178383304354754,-0.010948408798365594,0.9984004522231159,-0.0042503991118803975,-0.05526168304470819,-0.010945506385360685,-0.15,0.01,0.052,-3.1200729267097618,0.11066536916411818,-0.007322323695190379,-3.120044171994705,0.11049441451928183,-0.006913931172555511,0.15,-0.01000000000000002,0.052,0
0.5193803466705125,-0.09129941789994295,-0.036769175628595,0.5192332587498484,-0.09152008590749715,-0.036816858870368924,0.9984082856747031,-0.004046412831375283,-0.055178383304354754,-0.010948408798365594,0.998400380639214,-0.004253118185974899,-0.05526263972322913,-0.010946149586788117,-0.132,0.009,0.031,-3.120071941624086,0.11066734865240554,-0.007327695106348595,-3.120044171994705,0.11049441451928183,-0.006913931172555511,0.132,-0.009000000000000015,0.031,0
0.5193803466705125,-0.09129941789994295,-0.036769175628595,0.5192304557943915,-0.09152170137837252,-0.03681908085582794,0.9984082856747031,-0.004046412831375283,-0.055178383304354754,-0.010948408798365594,0.9984002582213384,-0.004254157274055518,-0.0552649504907877,-0.010945245152442551,-0.143,0.0,0.048,-3.120073886110319,0.11067199272758632,-0.0073298352041872876,-3.120044171994705,0.11049441451928183,-0.006913931172555511,0.143,-1.751244922780715e-17,0.048,0
0.5193803466705125,-0.09129941789994295,-0.036769175628595,0.519231448099113,-0.09152258280401801,-0.03681750791986679,0.9984082856747031,-0.004046412831375283,-0.055178383304354754,-0.010948408798365594,0.9984003367559947,-0.004256005827766783,-0.05526324813258266,-0.010945958177109276,-0.148,0.009,0.063,-3.1200726505943717,0.11066862808913988,-0.007333505349573118,-3.120044171994705,0.11049441451928183,-0.006913931172555511,0.148,-0.009000000000000017,0.063,0
0.5193803466705125,-0.09129941789994295,-0.036769175628595,0.5192301889642637,-0.09152341252035338,-0.036818532895908335,0.9984082856747031,-0.004046412831375283,-0.055178383304354754,-0.010948408798365594,0.9984003293386031,-0.004254702424737913,-0.055263868830080914,-0.010944007515487473,-0.146,0.009,0.06,-3.1200764282224545,0.11066982889155387,-0.007331090800975966,-3.120044171994705,0.11049441451928183,-0.006913931172555511,0.146,-0.009000000000000017,0.06,0
0.5193803466705125,-0.09129941789994295,-0.036769175628595,0.5192269093723298,-0.09152228351687589,-0.036820454560733795,0.9984082856747031,-0.004046412831375283,-0.055178383304354754,-0.010948408798365594,0.998400126110309,-0.004253362264703703,-0.05526750428024374,-0.010944710036088282,-0.162,0.0,0.06,-3.120074885623776,0.11067708674366239,-0.007328244197583862,-3.120044171994705,0.11049441451928183,-0.006913931172555511,0.162,-1.983927814618712e-17,0.06,0
0.5193803466705125,-0.09129941789994295,-0.036769175628595,0.5192300437385378,-0.09152210392362617,-0.03681861517647034,0.9984082856747031,-0.004046412831375283,-0.055178383304354754,-0.010948408798365594,0.9984003049387147,-0.00425348061026835,-0.05526423790357836,-0.010944844662596823,-0.142,0.009,0.07,-3.1200746119807095,0.11067054793826893,-0.007328535145646494,-3.120044171994705,0.11049441451928183,-0.006913931172555511,0.142,-0.009000000000000017,0.07,0
0.5193803466705125,-0.09129941789994295,-0.036769175628595,0.519231602872735,-0.09152275700168014,-0.03681650492321356,0.9984082856747031,-0.004046412831375283,-0.055178383304354754,-0.010948408798365594,0.9984003816767985,-0.004252975274692263,-0.055262804441134454,-0.010945278846584812,-0.132,-0.001,0.087,-3.120073676167095,0.11066766910110763,-0.0073275014523508835,-3.120044171994705,0.11049441451928183,-0.006913931172555511,0.132,0.0009999999999999838,0.087,0
0.5193803466705125,-0.09129941789994295,-0.036769175628595,0.5192260251697506,-0.09152656743575592,-0.03682063501901636,0.9984082856747031,-0.004046412831375283,-0.055178383304354754,-0.010948408798365594,0.9984000861638657,-0.004254765089855611,-0.05526815224560811,-0.010944536723465775,-0.128,0.009,0.061,-3.120075393218348,0.11067841353577398,-0.007331068422757381,-3.120044171994705,0.11049441451928183,-0.006913931172555511,0.128,-0.009000000000000015,0.061,0
0.5193803466705125,-0.09129941789994295,-0.036769175628595,0.5192300802957612,-0.09152698913198083,-0.03681803826923327,0.9984082856747031,-0.004046412831375283,-0.055178383304354754,-0.010948408798365594,0.9984003678845934,-0.004255645315515356,-0.05526327313500413,-0.01094313245582754,-0.139,0.01,0.042,-3.1200782884720493,0.11066864964354894,-0.007333095009486845,-3.120044171994705,0.11049441451928183,-0.006913931172555511,0.139,-0.010000000000000018,0.042,0
0.5193803466705125,-0.09129941789994295,-0.036769175628595,0.5192280897586475,-0.09152523700072193,-0.0368199633580904,0.9984082856747031,-0.004046412831375283,-0.055178383304354754,-0.010948408798365594,0.9984002619420925,-0.00425766338413537,-0.05526483413776733,-0.010944129878336465,-0.133,-0.009,0.035,-3.1200765166657733,0.11067182704498663,-0.007337005983874079,-3.120044171994705,0.11049441451928183,-0.006913931172555511,0.133,0.008999999999999984,0.035,0
0.5193803466705125,-0.09129941789994295,-0.036769175628595,0.5192252127490846,-0.09152941375821785,-0.03682051246564877,0.9984082856747031,-0.004046412831375283,-0.055178383304354754,-0.010948408798365594,0.9984001457226075,-0.004259655284717426,-0.05526695075684796,-0.010943268546896336,-0.138,0.019,0.053,-3.1200784796323946,0.1106761030874876,-0.007341059674745289,-3.120044171994705,0.11049441451928183,-0.006913931172555511,0.138,-0.019000000000000017,0.053,0
0.5193803466705125,-0.09129941789994295,-0.036769175628595,0.5192276587909946,-0.09152945016894269,-0.03681774018401693,0.9984082856747031,-0.004046412831375283,-0.055178383304354754,-0.010948408798365594,0.9984002598884028,-0.004257929396327322,-0.05526495681102813,-0.010943594258283226,-0.145,0.018,0.071,-3.1200776231303666,0.11067207454749677,-0.007337597491797001,-3.120044171994705,0.11049441451928183,-0.006913931172555511,0.145,-0.018000000000000016,0.071,0
0.5193803466705125,-0.09129941789994295,-0.036769175628595,0.5192273013204175,-0.09153031716392017,-0.0368183546527103,0.9984082856747031,-0.004046412831375283,-0.055178383304354754,-0.010948408798365594,0.9984002528454319,-0.004257355139946273,-0.055265220060440524,-0.010943130798526478,-0.161,0.019,0.065,-3.1200784917974898,0.11067258603979042,-0.007336489829224856,-3.120044171994705,0.11049441451928183,-0.006913931172555511,0.161,-0.01900000000000002,0.065,0
0.5193803466705125,-0.09129941789994295,-0.036769175628595,0.5192244291751841,-0.091531547483927,-0.03681950694442135,0.9984082856747031,-0.004046412831375283,-0.055178383304354754,-0.010948408798365594,0.9984000865015978,-0.004260662621136595,-0.05526790774318013,-0.010943446248718059,-0.152,0.02,0.044,-3.120078239456897,0.11067804288194338,-0.007343043798260655,-3.120044171994705,0.11049441451928183,-0.006913931172555511,0.152,-0.020000000000000018,0.044,0
0.5193803466705125,-0.09129941789994295,-0.036769175628595,0.5192239577466634,-0.09153378336693879,-0.03682024384790908,0.9984082856747031,-0.004046412831375283,-0.055178383304354754,-0.010948408798365594,0.9984001279976977,-0.004261075575907235,-0.055267509688979866,-0.01094150978411065,-0.131,0.0,0.039,-3.1200821744619915,0.11067724025860481,-0.007344097322638338,-3.120044171994705,0.11049441451928183,-0.006913931172555511,0.131,-1.604287306883033e-17,0.039,0
0.5193803466705125,-0.09129941789994295,-0.036769175628595,0.5192229670888338,-0.09153280245150885,-0.03681921435535482,0.9984082856747031,-0.004046412831375283,-0.055178383304354754,-0.010948408798365594,0.9984000967219552,-0.004260454481405423,-0.055267996723866446,-0.010942145393774404,-0.146,0.009,0.064,-3.1200808306169723,0.11067820705280366,-0.007342768557362839,-3.120044171994705,0.11049441451928183,-0.006913931172555511,0.146,-0.009000000000000017,0.064,0
0.5193803466705125,-0.09129941789994295,-0.036769175628595,0.5192243111856213,-0.09153393625600235,-0.03682019614142518,0.9984082856747031,-0.004046412831375283,-0.055178383304354754,-0.010948408798365594,0.9984001654397946,-0.004260923947739877,-0.0552670464376997,-0.010940492192834016,-0.147,0.008,0.069,-3.1200841999691407,0.11067630164427715,-0.0073439156083793065,-3.120044171994705,0.11049441451928183,-0.006913931172555511,0.147,-0.008000000000000018,0.069,0
0.5193803466705125,-0.09129941789994295,-0.036769175628595,0.5192235864202638,-0.09153368987406783,-0.03682098845589102,0.9984082856747031,-0.004046412831375283,-0.055178383304354754,-0.010948408798365594,0.9984000877126973,-0.004259503737715446,-0.055268451129836686,-0.01094104233699658,-0.147,0.009,0.059,-3.1200829435177173,0.11067908860547332,-0.0073409716918866885,-3.120044171994705,0.11049441451928183,-0.006913931172555511,0.147,-0.009000000000000017,0.059,0
0.5193803466705125,-0.09129941789994295,-0.036769175628595,0.5192226990597792,-0.09153577500369031,-0.03681968276236483,0.9984082856747031,-0.004046412831375283,-0.055178383304354754,-0.010948408798365594,0.9984000572187899,-0.004262015952014681,-0.05526864077151624,-0.010941888650135461,-0.144,0.009,0.061,-3.120081523501083,0.1106795287911511,-0.007345920895530347,-3.120044171994705,0.11049441451928183,-0.006913931172555511,0.144,-0.009000000000000017,0.061,0
0.5193803466705125,-0.09129941789994295,-0.036769175628595,0.5192236568447003,-0.09153562588469934,-0.03681986038065277,0.9984082856747031,-0.004046412831375283,-0.055178383304354754,-0.010948408798365594,0.9984001323407264,-0.00426056631842141,-0.05526768673146958,-0.010940417473706531,-0.152,0.01,0.052,-3.1200843135134235,0.11067757585870602,-0.007343192047884976,-3.120044171994705,0.11049441451928183,-0.006913931172555511,0.152,-0.01000000000000002,0.052,0
0.5193803466705125,-0.09129941789994295,-0.036769175628595,0.5192212920484455,-0.0915379138991106,-0.03682027650234193,0.9984082856747031,-0.004046412831375283,-0.055178383304354754,-0.010948408798365594,0.998399997212213,-0.004263612226051242,-0.05526989827897752,-0.010940390122193795,-0.154,0.01,0.051,-3.1200847185218867,0.11068207085787465,-0.007349268589070945,-3.120044171994705,0.11049441451928183,-0.006913931172555511,0.154,-0.01000000000000002,0.051,0
0.5193803466705125,-0.09129941789994295,-0.036769175628595,0.5192203275365291,-0.09154154727033058,-0.0368196227904804,0.9984082856747031,-0.004046412831375283,-0.055178383304354754,-0.010948408798365594,0.9983999871104182,-0.004267618884748242,-0.0552697392572839,-0.010940553166682852,-0.142,0.009,0.051,-3.120084836009431,0.1106818398536383,-0.007357303650615308,-3.120044171994705,0.11049441451928183,-0.006913931172555511,0.142,-0.009000000000000017,0.051,0
0.5193803466705125,-0.09129941789994295,-0.036769175628595,0.5192223883011213,-0.09153780229649662,-0.03681975463850112,0.9984082856747031,-0.004046412831375283,-0.055178383304354754,-0.010948408798365594,0.9984000456543162,-0.004265671561219582,-0.05526873595339006,-0.01094103852364741,-0.123,0.009,0.039,-3.1200836390058377,0.11067979192790323,-0.007353358125621148,-3.120044171994705,0.11049441451928183,-0.006913931172555511,0.123,-0.009000000000000015,0.039,0
0.5193803466705125,-0.09129941789994295,-0.036769175628595,0.5192232545728899,-0.09154650036409337,-0.03681867252786897,0.9984082856747031,-0.004046412831375283,-0.055178383304354754,-0.010948408798365594,0.9984001993175013,-0.004269146036513921,-0.05526641213788808,-0.010937399070373721,-0.142,0.009,0.06,-3.120091326943872,0.11067518548721918,-0.007360792342471356,-3.120044171994705,0.11049441451928183,-0.006913931172555511,0.142,-0.009000000000000017,0.06,0
0.5180328077224534,-0.09137615983376558,-0.03788837347405398,0.5192211453055701,-0.09154426759887295,-0.03681896878626842,0.9984000542757717,-0.004266058346124556,-0.05526901458439196,-0.010938693223972848,0.9984000542757716,-0.004266058346124536,-0.05526901458439197,-0.010938693223972848,-0.14,0.0,0.039,-3.120088395985206,0.11068034106465012,-0.007354390469605082,-3.120088395985206,0.1106803410646501,-0.007354390469605124,0.14,-1.7145055188062947e-17,0.039,0
0.5179757503417771,-0.09133796732316073,-0.03835937223809206,0.5191872601657832,-0.09155437085081888,-0.036834604792760184,0.9984213908106807,-0.004263609265444518,-0.05512035692648002,-0.009668550788702499,0.998398604824015,-0.004280703931733206,-0.05529432172617049,-0.010937369784452061,-0.146,0.0,0.034,-3.120092812860246,0.11073133532006994,-0.0073834351712356635,-3.1226394614382276,0.11037309445278165,-0.007493557133168366,0.146,-1.7879843267551354e-17,0.034,0
0.5183137372878831,-0.09118937580475862,-0.0388320246733948,0.5188966006460946,-0.09157313789876045,-0.036985113012079684,0.9983939607773629,-0.004373261849009085,-0.055708467148714975,-0.009062392719983737,0.9983851425290096,-0.004342399498499388,-0.05552931446065349,-0.010951373910733019,-0.145,0.001,0.036,-3.120072755353841,0.11120344801454464,-0.007500931100649744,-3.1238730111023227,0.1115484488217827,-0.007771148698105004,0.145,-0.0010000000000000178,0.036,0
0.5184906314758103,-0.0912043382395273,-0.03918258581536257,0.5185712080637327,-0.09160793735881537,-0.03719668133468562,0.9983213218035989,-0.004832418022518725,-0.0568668936102658,-0.009619208327261562,0.9983687156028607,-0.004400747812981833,-0.05582219407848417,-0.010936653101224703,-0.109,-0.002,0.054,-3.1201104033190483,0.11179122553069104,-0.007613721140009017,-3.1228132188941125,0.11388183021948407,-0.008610463420328568,0.108,-0.007000000000000013,0.056,0
0.5184920791534227,-0.0914632093180185,-0.040293217758111594,0.5184111342089085,-0.09165417115124837,-0.03735810077510987,0.9983890933445726,-0.005462757612046618,-0.0555869415677418,-0.009729082950155461,0.9983589634442264,-0.004420722673452568,-0.056004821183769274,-0.010885032546920347,-0.104,0.017,0.04,-3.120217352374772,0.11215706316897052,-0.0076558841813525675,-3.1226545976966342,0.11133092841446564,-0.00988766918784841,0.104,-0.017000000000000015,0.04,0
0.5187262367156785,-0.09161638848671967,-0.041227765182428,0.5182650475260431,-0.09169401472531834,-0.03750511861152758,0.9984657596573911,-0.005275116550077112,-0.054260123003324716,-0.009451219848170331,0.9983500003617352,-0.004435504738813595,-0.05617209285423376,-0.010839080539233116,-0.159,0.023,-0.033,-3.1203122590976538,0.11249207590397005,-0.00768732836110379,-3.123181864522507,0.10866720342051842,-0.009564961731695932,0.159,-0.02300000000000002,-0.033,0
0.5190251964477341,-0.09160854427704865,-0.04254768095391238,0.5181067114950312,-0.0917412275207203,-0.03767868059632945,0.9985064176089863,-0.004767090822340677,-0.053608875852748976,-0.009136950311114334,0.9983399110111969,-0.004450221463300554,-0.05636125323364708,-0.010780229659312624,-0.154,0.015,-0.162,-3.1204332127642975,0.11287083238488047,-0.0077196908882942354,-3.1237533572851532,0.1073507962857142,-0.008589851597023163,0.154,-0.015000000000000019,-0.162,0
0.5191890987304489,-0.09160424344430024,-0.04431414518731081,0.5179922151790066,-0.09177882117859917,-0.03782075438711627,0.9985915427494481,-0.005053191652992592,-0.05199420715198454,-0.009010272188571415,0.9983319709020022,-0.004454733731454286,-0.056511788275610285,-0.010725465700581535,-0.043,0.097,-0.995,-3.120544598529873,0.11317203633541291,-0.007731914510758403,-3.1240267641783004,0.10412104307594472,-0.009205166945077812,0.04299999999999998,-0.097,-0.995,0
0.5194004138854782,-0.09163867657074982,-0.04414101324456179,0.5178776758095315,-0.09183694791499561,-0.03797959506365162,0.9985054579164359,-0.005372643911825656,-0.05345840380774513,-0.009765799178411088,0.9983237012596026,-0.004461398994406778,-0.05667077176210498,-0.010653340144542472,-0.038,0.004,-1.475,-3.120691176559249,0.11349007530155585,-0.007750310470808698,-3.1225543287176585,0.1070663891737168,-0.00974103235101868,0.038,-0.004000000000000004,-1.475,0
0.5197927631286423,-0.09164846556077058,-0.04360826788323366,0.5178438368651157,-0.09185341668999163,-0.03803619565590688,0.9985313489220522,-0.004694046472539829,-0.05308213192033308,-0.009517615992333485,0.9983209092790614,-0.004457156977898361,-0.05672537213963639,-0.01062612863236982,0.078,0.21,-2.274,-3.1207456789563923,0.11359914562898885,-0.007743793158929477,-3.1229773990989287,0.10629776499414263,-0.008411449937110533,-0.07800000000000003,-0.21,-2.274,0
0.520115326300029,-0.09162003342995698,-0.043260928253106706,0.5178270449997876,-0.09186372160850635,-0.038060619365744036,0.9983257813425668,-0.004387294550816169,-0.05683239867165659,-0.009573454114271013,0.9983196689174337,-0.004458789093796563,-0.05674922074516728,-0.010614631568652362,0.103,0.222,-2.437,-3.1207691022461925,0.11364686181438666,-0.007747907468147655,-3.122853997407463,0.11380399426078802,-0.007721759941114813,-0.10300000000000002,-0.222,-2.437,0
0.5202178768066208,-0.09167752210984284,-0.04335993109124147,0.5178259232658933,-0.09186462023387217,-0.03806733304186172,0.998095277927894,-0.00579797550343116,-0.060589924680377265,-0.009810567008932621,0.998319406296006,-0.004459216475865472,-0.056754629592395966,-0.010610232190759315,0.062,0.224,-2.42,-3.12077802257222,0.1136576710947695,-0.007749160618730965,-3.122570255054869,0.12136048594795269,-0.010462161504782701,-0.06200000000000003,-0.224,-2.42,0
0.5203707927612107,-0.09187424461731965,-0.04331512174981081,0.5178247105894976,-0.09186391089847314,-0.038073337332702434,0.998031453436878,-0.005538320312270533,-0.06169962339026823,-0.009533519088072937,0.9983191762455881,-0.004456409439447432,-0.05675943175597701,-0.010607368580325537,0.113,0.26,-2.449,-3.1207834831738204,0.11366720962498768,-0.007743750409015396,-3.123104361923328,0.12357621262525925,-0.009954481348766303,-0.11300000000000003,-0.26,-2.449,0
0.5205603069213669,-0.09201007311234528,-0.04305458555596315,0.5178244340943271,-0.09186721606912747,-0.03807701109299874,0.9981670356971184,-0.005994470445030388,-0.05944184210971773,-0.009406864879047372,0.9983190415334062,-0.004455376435742048,-0.0567623656577535,-0.010604781178243143,0.093,0.254,-2.514,-3.120788581290887,0.1136730449603417,-0.007741911367675317,-3.1233960627558663,0.11905963602055719,-0.010926208214041375,-0.09300000000000003,-0.254,-2.514,0
0.5208335460571091,-0.09204359357247406,-0.042878598312310806,0.5178275921622325,-0.09186750310690033,-0.03808041745854929,0.9980878542584077,-0.0057873708142639115,-0.060732304653966736,-0.00969098718518202,0.998319095283348,-0.004452412213907609,-0.056762283683805904,-0.010601404412052236,0.117,0.249,-2.445,-3.120795028742271,0.11367279282337239,-0.0077363421225822,-3.122810632896566,0.12164430200110206,-0.01045292881934655,-0.11700000000000003,-0.24899999999999997,-2.445,0
0.5209893573669235,-0.0920196890104776,-0.042747059921197525,0.517839662724584,-0.09187360811973648,-0.03807468626111771,0.998118844548615,-0.0057416320306444045,-0.06022313853878474,-0.009703913950493673,0.9983196211335813,-0.004455843523579725,-0.05675343329421508,-0.010597826841431913,0.147,0.204,-2.261,-3.1208025633923233,0.11365510824135511,-0.007743824605755274,-3.122774875197196,0.12062343084661292,-0.010368385389602561,-0.14700000000000002,-0.20399999999999996,-2.261,0
0.5209773696807664,-0.09199986641297395,-0.04270411024468385,0.5178828268966937,-0.09187322290583455,-0.038062140362540964,0.9982096865722312,-0.005759468812951012,-0.058886729944917816,-0.008472882074634982,0.9983213972274311,-0.004444054676012367,-0.056724564378336825,-0.010590024492287195,0.043,0.047,-1.608,-3.1208167411269,0.11359697483380224,-0.0077216044661090255,-3.125241079252198,0.11793339224238635,-0.010574078983385398,-0.043000000000000003,-0.04699999999999999,-1.608,0
0.5209485019592087,-0.0920005730856424,-0.04267579756157838,0.5179904667569786,-0.09188868124458642,-0.03805814024120585,0.998243246076993,-0.0063629031103115494,-0.05819284694330984,-0.008872102168134912,0.998324929049075,-0.004409556002359223,-0.056673018313551406,-0.010547391074672433,0.122,0.168,-2.049,-3.1208982096919797,0.11349267780146355,-0.007658176998574747,-3.124503226234098,0.11655787911954578,-0.01175086509410947,-0.12200000000000001,-0.16799999999999998,-2.049,0
0.5211408027557175,-0.09205625145325715,-0.042514779189996355,0.5180234620705751,-0.09189344378778183,-0.038051878166541375,0.9982424023887119,-0.005999863580702104,-0.058136965782634636,-0.009559678240727619,0.9983261876550783,-0.00440505722701854,-0.0566532132111485,-0.010536534258328897,0.098,0.134,-1.806,-3.120919410400114,0.11345282973622484,-0.00765077115897014,-3.123077911667883,0.11644727415203573,-0.010941411088108656,-0.09800000000000002,-0.134,-1.806,0
0.5213184493926803,-0.09211237256417329,-0.04233936415093385,0.5180336038946142,-0.0918953263793885,-0.03805160234495994,0.9982344089225095,-0.006020612495377053,-0.05825386331941264,-0.009669074604939163,0.9983264983027517,-0.004401889205281111,-0.05664851900658335,-0.010533663223516336,0.094,0.072,-1.646,-3.1209247940390976,0.11344333919270573,-0.007644826050099586,-3.1228614593785213,0.11668304090002163,-0.010968243263347466,-0.09400000000000001,-0.07199999999999998,-1.646,0
0.5213357700256149,-0.09211195700058991,-0.04232469282525026,0.518080292852017,-0.09189654551115084,-0.03803732619012554,0.9982409860654926,-0.006019359027937871,-0.05814061255322204,-0.00967247408583494,0.9983284093211667,-0.004389238576933828,-0.056617692061704104,-0.010523558413529447,0.052,0.04,-1.426,-3.1209434951585773,0.11338125078239226,-0.007621171290938811,-3.12285347439758,0.11645618116589322,-0.010967318989979484,-0.052000000000000005,-0.039999999999999994,-1.426,0
0.5213208412078659,-0.09221302513966614,-0.04233936415093385,0.5181030545965271,-0.09190130191391878,-0.038029811599603836,0.9982767279481302,-0.00631328608848137,-0.05750476448640514,-0.009597157231513755,0.9983294005892028,-0.004384440755581975,-0.056601543076276115,-0.010518390045277508,0.044,0.076,-1.293,-3.1209532495052454,0.11334876418469514,-0.007612441063383758,-3.1230332792142725,0.11518706468197835,-0.011578030069051067,-0.044000000000000004,-0.076,-1.293,0
0.5213409828094284,-0.09233340911755616,-0.04232469282525026,0.5181622763654954,-0.09189474888112507,-0.038007142416476125,0.998318128373016,-0.006646022704148095,-0.05675529423111483,-0.009527224651928583,0.9983319541040697,-0.004367364125612165,-0.05655901991670029,-0.01051187050077094,0.053,0.113,-1.189,-3.1209641807240347,0.11326318384553193,-0.007579714905345396,-3.123204728201695,0.11369107834839759,-0.01226775418275918,-0.05300000000000001,-0.113,-1.189,0
0.5214063457397262,-0.09241249065289552,-0.04232366285698854,0.5181952869749206,-0.09189703588654019,-0.037992757256445464,0.9983310786635006,-0.006295198361428486,-0.05664464109606002,-0.009055329812113332,0.9983333871549349,-0.004363481052294625,-0.05653466743437814,-0.010508382993008413,0.022,0.104,-1.155,-3.120970618802078,0.11321429698139299,-0.007572794155524648,-3.1241119540018127,0.11345748032237903,-0.01161847239377682,-0.022000000000000013,-0.104,-1.155,0
0.5214605621246139,-0.09251201562771852,-0.042279625991754166,0.518236776746497,-0.0919056315977703,-0.037973093142730896,0.9983393880422614,-0.006493660436350578,-0.056472924626476954,-0.009071600749826816,0.9983354031186691,-0.004362455892916469,-0.05650042565489967,-0.01050144606746613,0.018,0.123,-1.105,-3.1209842626793667,0.11314563398693414,-0.0075722058701306084,-3.1241001643474444,0.11311718329406205,-0.012018249952406466,-0.018000000000000013,-0.123,-1.105,0
0.5215586723235885,-0.09250981943497713,-0.04224921331780397,0.5182417014579185,-0.09191252427012088,-0.03797355804220595,0.9983120952869314,-0.006398601504297981,-0.05694947465186581,-0.009163085936616478,0.9983355517110339,-0.004366971776870003,-0.05649774135733922,-0.010499884707951138,-0.022,0.112,-0.966,-3.1209879003143857,0.11314033846972066,-0.007581511943462668,-3.1239102029042836,0.11407118655751602,-0.011808956931318084,0.021999999999999985,-0.112,-0.966,0
0.5216740516570847,-0.09250723664650973,-0.042204083541802995,0.5182548183219573,-0.09193690468033197,-0.03796644364906662,0.9983665967223111,-0.006488640041741602,-0.05598816277188963,-0.009085605525498528,0.9983363117944064,-0.004380693528899732,-0.05648458937948982,-0.01049265691015684,-0.042,0.12,-0.881,-3.121003917799309,0.11311422205172837,-0.007610170753158226,-3.124066541112592,0.11214625489102467,-0.012014470364985532,0.04199999999999999,-0.12,-0.881,0
0.5218859962371628,-0.09256304983983095,-0.04247462759392702,0.5182680595544845,-0.09195361626308286,-0.03795853666504595,0.9984003274523544,-0.006193854919744342,-0.05550741542494598,-0.008516786600103762,0.9983370354843384,-0.0043906928604929545,-0.05647168597116127,-0.010489074752099545,-0.038,0.078,-0.764,-3.121012185592425,0.11308855429326985,-0.0076309290143463365,-3.125171676322233,0.11117160277918944,-0.011493608126902546,0.03799999999999999,-0.078,-0.764,0
0.5221876567748825,-0.09265741853604371,-0.042802106002740495,0.5182885369817533,-0.09196887482893272,-0.037951882756490585,0.9984600214824929,-0.006966633107355828,-0.05444038735867753,-0.007777031333839162,0.9983379640995051,-0.004398915040399604,-0.05645587641778048,-0.010482347576131415,-0.027,0.105,-0.66,-3.121026555813093,0.11305700444634406,-0.007648531150710798,-3.126732137090266,0.10903739207939156,-0.013143471636370689,0.026999999999999986,-0.105,-0.66,0
0.522227522268657,-0.09265655200371797,-0.04303260717766725,0.5183342039375386,-0.09198778937732165,-0.03793780581505149,0.9984833486763498,-0.006551834680582536,-0.054142883450161106,-0.007197954221179963,0.99833992292066,-0.0043994415604645225,-0.056423391236142886,-0.010470470228309181,-0.066,0.057,-0.51,-3.121050311433167,0.1129918539533492,-0.007651584396689721,-3.1278467622825605,0.1084281890172669,-0.012377361236467403,0.06599999999999999,-0.05700000000000001,-0.51,0
0.5222676109222214,-0.09267589609513338,-0.043263177017144785,0.5183947600153339,-0.09203379942317393,-0.03795914551176496,0.9985058424361423,-0.0061759516158662936,-0.053844914694800246,-0.006622078376980301,0.9983413218888277,-0.004402631291979671,-0.05640661397716632,-0.010426042160484924,-0.071,0.081,-0.686,-3.1211398718953496,0.11295797256596425,-0.00766337525364956,-3.128959557786009,0.10781949877238103,-0.011688455598861985,0.07099999999999998,-0.08100000000000002,-0.686,0
0.5223583682922165,-0.0926739302147394,-0.043608811477594,0.5184525227274207,-0.09207098424821071,-0.0379574693776841,0.9985461123734665,-0.0068767090292413706,-0.05296852672164632,-0.006920548212023829,0.9983433946377119,-0.0044061153832757275,-0.05637461151983463,-0.010399149717425001,-0.009,0.089,-0.883,-3.121194140775443,0.11289373402599528,-0.007674062434885801,-3.1284256631553626,0.10607703795070003,-0.013074138745415721,0.008999999999999989,-0.089,-0.883,0
0.5224842704681198,-0.09267120258698518,-0.04376643667595826,0.5185149810158745,-0.09210110026593304,-0.03796076044491545,0.9985384413756652,-0.006751919810806267,-0.05325636069122827,-0.005859966033243465,0.9983453445534671,-0.004401538196422334,-0.05634583943354464,-0.010369785775392744,-0.042,0.111,-0.915,-3.121252478269848,0.11283578251528167,-0.007668763937830637,-3.1305459357227488,0.10663817350587558,-0.012933770765356907,0.04199999999999999,-0.111,-0.915,0
0.5225593208221238,-0.09268981604466492,-0.043809048751763925,0.5185437391874056,-0.09211870506291446,-0.03796825272387577,0.9985763021508264,-0.006884233330212924,-0.05253348743379417,-0.005778865429059251,0.9983461311010405,-0.004400865446149512,-0.056335596004175495,-0.010349982143251746,0.012,0.123,-1.106,-3.1212921457888103,0.11281509840728583,-0.0076698604738903355,-3.1307142346420154,0.10519084148578609,-0.013215125529168483,-0.012000000000000016,-0.123,-1.106,0
0.5226035579589646,-0.0927495896090036,-0.0438519984282776,0.5185984706574267,-0.09214872784357496,-0.03798919562431338,0.9985673427120427,-0.007517568923212355,-0.05256120720778354,-0.006265313454929416,0.9983473777689265,-0.004387348132683674,-0.05632212348430866,-0.010308709602360102,0.061,0.111,-1.169,-3.121373484611821,0.11278752113665634,-0.007647643877106811,-3.1298046146334744,0.10526027806307679,-0.014435367874618188,-0.06100000000000001,-0.11099999999999999,-1.169,0
0.522736721411113,-0.09276700107941681,-0.04424132643120728,0.5186530920685258,-0.09215967435728863,-0.03797926498224646,0.9986412082994416,-0.008227568774363975,-0.05112533880210699,-0.005424970606698282,0.9983494877698166,-0.004379839887747483,-0.056288399565496285,-0.01029174213397342,0.042,0.092,-1.158,-3.1214065500335506,0.11271968813516631,-0.007635138034976132,-3.131545857205146,0.10237976606824849,-0.01596232869521675,-0.05400000000000001,-0.092,-1.158,0
0.5227600444701951,-0.09278676037678772,-0.044617339233331305,0.518672536272015,-0.09218343034128364,-0.03799323758301737,0.9986438803231459,-0.0078107742687191055,-0.051197284934394134,-0.004839062045886738,0.9983498187944,-0.004385368755236183,-0.056285849825571554,-0.010271201134401338,0.047,0.085,-1.217,-3.121448443892053,0.11271453528046603,-0.007648626800488594,-3.1326804459140623,0.10251074814867195,-0.01518516755342338,-0.047000000000000014,-0.085,-1.217,0
0.5227356685546677,-0.09282778279671723,-0.045138337234429934,0.5186951800381261,-0.09220668387761617,-0.038011609512157596,0.9986576982227293,-0.008122647026597393,-0.050896285843511066,-0.0046453048130939084,0.9983502813310172,-0.004382709565897065,-0.05628238319972767,-0.010246344415077943,0.052,0.086,-1.282,-3.1214980777394383,0.1127073474214347,-0.007646168604510917,-3.133097080373672,0.10190769638221563,-0.015833434370466064,-0.07600000000000001,-0.07599999999999998,-1.284,0
0.5227912124542038,-0.09284687261471802,-0.045355122665338136,0.5186973021490809,-0.09223362278741419,-0.038041459864843974,0.9987086086197582,-0.00822171458493197,-0.04997014845806868,-0.003418935079422878,0.9983498338722734,-0.004387962926739137,-0.056294964592261444,-0.010218539977159474,0.084,0.147,-1.5,-3.121554619824446,0.11273244121073421,-0.00765963418720093,-3.1355550159625634,0.10003420820510583,-0.016162003270032223,-0.08400000000000002,-0.147,-1.5,0
0.5229783977416794,-0.09300513009915407,-0.04583224401848755,0.5187446269748848,-0.09227588232826853,-0.038082132442628064,0.9987393714375705,-0.008601773453959296,-0.04935611063693018,-0.0021995730999886972,0.9983506952335467,-0.004380781502128731,-0.05629067302996134,-0.010160945793272492,0.152,0.204,-2.016,-3.12166952831724,0.11272325956405829,-0.007651816569853705,-3.1380307456780243,0.09878621501569522,-0.01704867611045508,-0.15200000000000002,-0.20399999999999996,-2.016,0
0.5230338558105271,-0.09300400464425142,-0.04617972669976197,0.5187700986044265,-0.0922976372756364,-0.038096618822472283,0.9987378079960681,-0.00908547732809758,-0.04932643719492848,-0.0015277036340604283,0.9983519526270744,-0.004377829703973839,-0.05627392607022256,-0.01013139412982766,0.136,0.231,-1.931,-3.1217284916897268,0.11268942903023518,-0.007649556511217521,-3.1394268444460174,0.09871636779049146,-0.01808634219529859,-0.13600000000000004,-0.23099999999999998,-1.931,0
0.5231362232116501,-0.09308306436429079,-0.046541880706719975,0.5188816555627356,-0.09237194113134775,-0.038119187554383205,0.9987449081697755,-0.008821356387419306,-0.04924486860971241,-0.0009598534690117308,0.9983605041642555,-0.004365460306352297,-0.05614412780874299,-0.01001349109485231,0.22,0.284,-2.433,-3.1219633254478403,0.11242828801378063,-0.0076405206672212934,-3.1405390473252304,0.09854246525434492,-0.01761238476680667,-0.22000000000000003,-0.284,-2.433,0
0.5232068962005417,-0.09308165244946534,-0.046614396194390874,0.518965734320684,-0.0924277225111579,-0.038139875298695586,0.9987433703371696,-0.008821420204523889,-0.049276053904842805,-0.0009589532437380859,0.9983664039123445,-0.004354789077368625,-0.05605541565382637,-0.009926547116511121,0.264,0.291,-2.807,-3.1221363566621276,0.1122497194702684,-0.0076305727407028874,-3.140541409975539,0.09860489330111433,-0.0176126233592833,-0.26400000000000007,-0.2909999999999999,-2.807,0
0.5232950271514695,-0.09307989184746797,-0.046672480682305915,0.5190380856895958,-0.09247329690832193,-0.03815452792176932,0.9987446257280378,-0.008821371639169115,-0.04925059696546829,-0.0009596910680012168,0.9983712764266529,-0.00434853096367611,-0.05598151359473913,-0.009856035264445144,0.264,0.29,-2.834,-3.1222769434628836,0.11210103033625264,-0.007627333812669824,-3.1405394757221883,0.09855393256864241,-0.01761243537260898,-0.26400000000000007,-0.2899999999999999,-2.834,0
0.5234763645080368,-0.09313720350155885,-0.04689033613579713,0.5191799926526536,-0.0925543284277147,-0.03818199450026663,0.9987604873327658,-0.009424240835269293,-0.0488238195236293,-0.00030585648598987087,0.9983806721108387,-0.004327035210355125,-0.05583897880251282,-0.00972138775131756,0.355,0.388,-3.537,-3.122544317287733,0.11181408891102398,-0.007601936605979099,3.141281868751906,0.09768766464896786,-0.018886414190386013,-0.35500000000000004,-0.38799999999999996,-3.537,0
0.523673712149028,-0.0931333082188135,-0.0470940352477356,0.5192822643387426,-0.09261376517745958,-0.038191048621624896,0.998784696133776,-0.00938794348120997,-0.048327035773960324,0.0008253340798015998,0.9983887775973044,-0.004316469814183757,-0.05571180441660235,-0.00962280192629171,0.34,0.389,-3.174,-3.122740535270567,0.11155840563265393,-0.007594101858519072,3.139024590494188,0.0966716132547885,-0.018922314274690127,-0.3400000000000001,-0.38899999999999996,-3.174,0
0.5237582096008102,-0.09313164060006197,-0.04718143377678834,0.5194187695867991,-0.09271344639901047,-0.038212504262182395,0.9987828831571848,-0.009387950389742704,-0.0483644704137443,0.0008264249410262286,0.9984010501781625,-0.0043083669419631985,-0.05551870026117554,-0.009467920112057703,0.399,0.428,-3.717,-3.1230497794269056,0.11117028754492186,-0.007598642659171167,3.13902167864767,0.09674654582070258,-0.018922599632404256,-0.3990000000000001,-0.42799999999999994,-3.717,0
0.5238989318755904,-0.09312886290440615,-0.04732722578423463,0.5195471179845745,-0.09280437891549476,-0.03822922926893618,0.9988100922202129,-0.010000957288709759,-0.04767994705524845,0.00043520194146714694,0.9984128713783004,-0.004303987371692152,-0.05533073842580494,-0.009322550980508767,0.468,0.434,-3.864,-3.1233403368707786,0.1107926153561583,-0.007609393645471024,3.139761251957704,0.0953822818141516,-0.020112384844455777,-0.4680000000000001,-0.43399999999999994,-3.864,0
0.5240547660735885,-0.09318686048874911,-0.047487786392144786,0.5196518032204185,-0.09287948395357966,-0.038242862171506076,0.9987974838129491,-0.009991732199723583,-0.047924429982854344,0.0014787994551598773,0.9984229829135011,-0.0042984697127056715,-0.05516892998718972,-0.009200332886503876,0.442,0.448,-3.885,-3.1235843823027154,0.1104674866071203,-0.007614724491848901,3.1376628285550896,0.09585075054456507,-0.020195241642413878,-0.44200000000000006,-0.44799999999999995,-3.885,0
0.5242494415191451,-0.0932645576466089,-0.047721503356866465,0.5198182585539171,-0.09299714942086348,-0.03826332762260465,0.998820596799599,-0.010245393738614453,-0.04738361985947745,0.0015575881165737532,0.998438625407881,-0.004288349091401182,-0.05491728809051576,-0.009011073066800018,0.541,0.551,-4.108,-3.1239620941989785,0.10996183710842193,-0.007619673507143574,3.137491772569199,0.09476533055153204,-0.020708619818977786,-0.5410000000000001,-0.5509999999999999,-4.108,0
0.5243087276366988,-0.09324304311165865,-0.04788194380181275,0.5199169040491329,-0.09305298430148695,-0.03827554891661314,0.998842159796657,-0.010298652117519246,-0.04691212784518532,0.0016480378596884177,0.9984476163847432,-0.004277812006953639,-0.054772104606645874,-0.008902855204617234,0.533,0.964,-4.274,-3.1241775254332795,0.10967003491593531,-0.007612895732548271,3.137315265480768,0.09381925014600669,-0.020821147199971992,-0.5330000000000001,-0.9639999999999999,-4.274,0
0.5242916244415083,-0.09326374869237002,-0.04802738676445924,0.52008037404104,-0.09313845413674418,-0.038278179223820125,0.9988269123193959,-0.010338481996730058,-0.04722669488632082,0.0016554434680731665,0.9984628590352886,-0.0042594374788903515,-0.054521486987275346,-0.008739015429378029,0.543,1.036,-4.14,-3.1245032297816357,0.10916650577366538,-0.0075981548069129,3.1372899140481327,0.09444871808218491,-0.02090375368633756,-0.5430000000000001,-1.036,-4.14,0
0.5243270095733443,-0.09328344933877047,-0.04812951383965455,0.520182273264688,-0.09319296440428883,-0.03827416551976112,0.9988510800749413,-0.010471860194389098,-0.04667995993523749,0.0017399685996839632,0.9984725461084955,-0.0042552191675036604,-0.05435992236497951,-0.008640210219745181,0.533,1.234,-4.485,-3.1247003337372554,0.10884208633860719,-0.007603140999708719,3.1371195280362647,0.09335174268767901,-0.021175879329170897,-0.5330000000000001,-1.234,-4.485,0
0.5244541477111617,-0.09334218935856875,-0.048261487106256114,0.5202988558160273,-0.09327679120259981,-0.0382986230539718,0.998847184709851,-0.010592009306039677,-0.046736317473545834,0.0017360086274504187,0.9984837376397673,-0.004245278059114718,-0.05417793764700477,-0.008493584082216907,0.56,1.227,-4.377,-3.124992754426472,0.10847631159652037,-0.007602109065653452,3.137114974566219,0.0934641198217175,-0.02141697358057968,-0.5600000000000002,-1.227,-4.377,0
0.5245660308746138,-0.09334008006939944,-0.048378909210137946,0.5203930705910209,-0.09333787749617378,-0.0383099618202411,0.9988448459944024,-0.010591961697657677,-0.04678622984629418,0.0017374796295286797,0.9984928149322313,-0.004235911470768,-0.054028257159072286,-0.008383890897552291,0.575,1.328,-4.61,-3.125211221367904,0.10817553396345932,-0.007597603231364709,3.137110931659741,0.09356401612452893,-0.021417341330177087,-0.5750000000000001,-1.328,-4.61,0
0.5246298030761519,-0.09337968413720187,-0.04837941847222291,0.5205177192484494,-0.09342353221821281,-0.038324672229051004,0.9988796395253022,-0.01076559801262062,-0.045994201713009226,0.0018130617869227675,0.9985047984014801,-0.004228566577417828,-0.05382950262810874,-0.008237600168780048,0.599,1.366,-4.663,-3.1255031295430196,0.10777622833951048,-0.007601816750741769,3.136960642618139,0.09197593052330018,-0.02176757344390843,-0.5990000000000002,-1.366,-4.663,0
0.5247280620483199,-0.09321455662140903,-0.04845314131157837,0.5205750857685976,-0.09345788904917823,-0.0383267957878799,0.9988730061927359,-0.010836719547982845,-0.0460946405030911,0.0023985957191476775,0.9985101388961828,-0.004225256602346851,-0.0537401230790483,-0.00817529911167438,0.584,1.43,-4.84,-3.1256273925129188,0.10759668951729812,-0.007603282336989446,3.1357770686173034,0.0921638188862412,-0.021965118962706746,-0.5840000000000002,-1.43,-4.84,0
0.5248903449920455,-0.09329311673531589,-0.04855661878960572,0.520629206642987,-0.09350202373366681,-0.038337468246509354,0.9988738947583835,-0.010997066472668912,-0.04603784740809366,0.0023894819442943963,0.9985154217807289,-0.004224058071821327,-0.053652701614733296,-0.0081045681498451,0.621,1.456,-4.839,-3.1257688259346104,0.10742104272288039,-0.007609847415874164,3.1357818196731446,0.09204938870871623,-0.022285562892289595,-0.6210000000000002,-1.456,-4.839,0
0.5250211280731002,-0.09320889000783023,-0.0487621432341858,0.5207345345795905,-0.09356324712632215,-0.03834658009525638,0.998897476646604,-0.010930323343630659,-0.04553430899650786,0.002484353168991755,0.9985252170368769,-0.004213637950481793,-0.05348846193038355,-0.007987944255197667,0.619,1.505,-4.86,-3.126000988424531,0.10709105087847191,-0.007603956166523945,3.1356091434682867,0.09103961028682908,-0.02215635197127593,-0.6190000000000002,-1.505,-4.86,0
0.5251373828796188,-0.09326797513852175,-0.04885086927788697,0.5208128362255912,-0.09360643182955877,-0.03835569067367106,0.9988967472160617,-0.011050541789151179,-0.04552161203418106,0.0024784830452758977,0.9985323562780666,-0.004203103755926315,-0.053369054651102886,-0.007899240918481019,0.614,1.535,-4.889,-3.126177317884119,0.10685106484817626,-0.007594103218140306,3.135610225530312,0.09101360268271837,-0.02239691285348105,-0.6140000000000002,-1.535,-4.889,0
0.5252400993255416,-0.0931637505758768,-0.04889574728386841,0.5209313418247048,-0.0936634739218602,-0.03835894416637578,0.9988912927845636,-0.011242353509107903,-0.045559196781861044,0.0030562015273523494,0.9985429229515492,-0.004188881065776384,-0.053190055520107554,-0.007777461667580717,0.663,1.645,-5.169,-3.126419328523151,0.10649142697141051,-0.007581206709832507,3.134432838959232,0.09107450384425725,-0.022834868123915632,-0.6630000000000003,-1.645,-5.169,0
0.5252416843322555,-0.093245530771113,-0.04889574728386841,0.5210548358320063,-0.09369174578685945,-0.03837478414431228,0.9988944465301011,-0.010880811211564395,-0.04554436371744263,0.003519901033757536,0.9985533593617261,-0.004140520600480608,-0.053017193597476316,-0.007642538779243491,0.665,1.549,-5.28,-3.1266841283695617,0.10614347929935171,-0.007500974720726774,3.133535987833273,0.0910371220536244,-0.022151722325042405,-0.6650000000000003,-1.549,-5.28,0
0.5252683433440963,-0.09318365471253451,-0.048925250152520756,0.5211189453490522,-0.09370050962984904,-0.038389996810896276,0.9988902710936939,-0.011282391381983801,-0.04557179509903133,0.00305475671620862,0.9985587170145868,-0.004119596729988969,-0.05292903688207878,-0.007564474331465365,0.716,1.669,-5.274,-3.1268381677575934,0.10596602805400018,-0.007468519041985711,3.134431778459903,0.09109947079837874,-0.022915183178252845,-0.7160000000000002,-1.669,-5.274,0
0.5252786659148971,-0.09318345444092806,-0.04896919546502076,0.5212543623180744,-0.09374440510598009,-0.038396899259305645,0.998881707319614,-0.011804082200172547,-0.04565629731320417,0.0025859178783877515,0.9985698291349393,-0.004102803762144414,-0.05273954263384128,-0.007429038050778554,0.712,1.734,-5.487,-3.127107275184377,0.10558526438483773,-0.0074518316083314615,3.1353225376050995,0.09127612077714045,-0.023919734793844308,-0.7120000000000002,-1.734,-5.487,0
0.5253204139617721,-0.0931826440561777,-0.04901347265618287,0.5213056231785897,-0.09376086489984709,-0.03839682748996323,0.9989222703911641,-0.011506272158246872,-0.04486300973326177,0.0020975792613579544,0.9985736110693412,-0.004098583806718547,-0.05267478473394169,-0.0073823140677903515,0.732,1.705,-5.557,-3.127200283424287,0.10545516289840426,-0.00744920250945205,3.1363484456310133,0.08970129430854369,-0.02327160561617228,-0.7320000000000002,-1.705,-5.557,0
0.5253621562866012,-0.09318183331379946,-0.049057767013482675,0.5213669467623941,-0.09377476870335923,-0.038402672092708395,0.9989100387046301,-0.011898535943833718,-0.045002468559203104,0.0026689436645534344,0.9985783063490621,-0.0041089639816934325,-0.05259355916588442,-0.0073202909052143186,0.71,1.735,-5.49,-3.1273254640794055,0.10529217689150856,-0.007477726194822071,3.1351635513789673,0.08996462988219797,-0.02411118704376457,-0.7100000000000002,-1.735,-5.49,0
0.5253760665801803,-0.09318156330475863,-0.04907253561394654,0.5213902720583604,-0.09377891683911076,-0.03840691509677602,0.9989097581075921,-0.011898522307728362,-0.04500868831397359,0.0026691421431977043,0.9985801679574897,-0.004110912599010348,-0.052561896587922464,-0.00729261319659141,0.733,1.734,-5.544,-3.1273810673179616,0.10522858647374103,-0.007484996798242458,3.1351630001315534,0.08997707626536405,-0.024111231343901203,-0.7330000000000002,-1.734,-5.544,0
0.5254909252074996,-0.09317933313736972,-0.04916153059380494,0.5214435820660263,-0.09379426350031313,-0.03841080782765938,0.9989157543339545,-0.011376370471876488,-0.04498027021935932,0.0031393163489725527,0.9985842128584574,-0.004130319527856681,-0.05249080552166904,-0.007239630234165842,0.743,1.774,-5.602,-3.127489097404741,0.10508608909045308,-0.007530528575148216,3.134267679472156,0.08991267076086064,-0.02310586841184105,-0.7430000000000002,-1.774,-5.602,0
0.5255398715881149,-0.0931783829201227,-0.04914745436089478,0.5214987291842241,-0.09374246371914866,-0.03843459626633711,0.9989205781609104,-0.011376613876140964,-0.04487318402509603,0.00313601923578602,0.9985881601913161,-0.004094787127233614,-0.05242268365176701,-0.007208876753784984,0.805,1.369,-5.96,-3.127546698159397,0.10494893011527061,-0.007463327531241572,3.134276828847851,0.08969837342329148,-0.023105048638211983,-0.8050000000000003,-1.369,-5.96,0
0.5255815624145309,-0.09317757325062807,-0.04919180593865357,0.5215694624415219,-0.09376835853391219,-0.03843268773810887,0.9989438115469083,-0.011993232329599606,-0.04421605245633551,0.0027478107529951144,0.9985939174789691,-0.004097275935804136,-0.052320985714488455,-0.007148522845879747,0.834,1.683,-6.091,-3.1276675561175975,0.10474484445013577,-0.007476037715661605,3.1350164678551695,0.08838783572673911,-0.02430137244867915,-0.8340000000000002,-1.683,-6.091,0
0.5257355941680709,-0.0931745827663904,-0.04909108648674927,0.5216617640700321,-0.09380442099747592,-0.038432437412597886,0.9989343520783872,-0.01189950878660501,-0.04446026407224026,0.0026519551500031172,0.9986011323796918,-0.0041046534843179145,-0.052193368379218126,-0.007068885896184549,0.858,1.747,-6.04,-3.1278274898320033,0.1044887734834641,-0.007500905296893337,3.1352109904091936,0.08887962877753848,-0.02410695042890672,-0.8580000000000002,-1.747,-6.04,0
0.5258328231719772,-0.09317269484887178,-0.04919466123955689,0.5217027162845057,-0.0938088272287151,-0.03843481862545797,0.9989616115870772,-0.011993995071496143,-0.043812643477415765,0.002735130227993816,0.9986041867483487,-0.004095996113302087,-0.05214011666320083,-0.00703533083876614,0.811,1.756,-5.928,-3.127893643604507,0.10438175719881373,-0.007487736061508633,3.135051917698568,0.08758060716792122,-0.02429825876285928,-0.8110000000000003,-1.756,-5.928,0
0.5258569644836227,-0.09317222599873598,-0.04925351820366822,0.5217514935339069,-0.0938239076212773,-0.0384349971928894,0.9989582983351256,-0.011993854540067317,-0.04388801344347383,0.002737503411491086,0.99860805705424,-0.004098387873104837,-0.052071407991938636,-0.006993332109584194,0.819,1.774,-5.89,-3.1279778181372175,0.10424387464783823,-0.0074978328632157995,3.135045286696848,0.08773142262117223,-0.024298842311291518,-0.8190000000000002,-1.774,-5.89,0
0.5259124740508835,-0.09317114810833986,-0.04931275282280884,0.5218186991922452,-0.09382475992663233,-0.03843700245294607,0.9989572001292605,-0.011993803707364494,-0.04391296822854048,0.0027382863586778894,0.9986131831271227,-0.004083232568713853,-0.05198048149850396,-0.006946499935150666,0.843,1.657,-5.959,-3.1280697250289924,0.10406122349357966,-0.007473471946487944,3.135043097151752,0.08778135740185024,-0.024299026897442788,-0.8430000000000002,-1.657,-5.959,0
0.5260438465026657,-0.09316859750638064,-0.04951949606316529,0.5219269710279065,-0.09384145660119203,-0.038441258033324405,0.998989181669771,-0.011694765717184752,-0.04328907860202695,0.0022558984604559864,0.9986217876445318,-0.004054043303163664,-0.05182868969048884,-0.006860285876735423,0.811,1.805,-5.994,-3.128238885034418,0.10375620308065771,-0.0074257955561233095,3.1360520873305475,0.08654587838469173,-0.023651921148678343,-0.8110000000000003,-1.805,-5.994,0
0.5261685184387008,-0.09316617672333773,-0.04965304289238892,0.5219655387685561,-0.09385273258552498,-0.03844714860182738,0.9990152064813485,-0.011788793877842789,-0.04265387502646914,0.0023397724335827963,0.9986249235225346,-0.004046338740491136,-0.0517737528841046,-0.006823078323910118,0.875,1.864,-6.155,-3.1283124662346107,0.10364580572039644,-0.007414895908112356,3.1358912400920547,0.08527187524040285,-0.023842852304533015,-0.8750000000000002,-1.864,-6.155,0
0.5261962074188034,-0.09316563920865115,-0.04968273458855591,0.5220493792535608,-0.09385206253323619,-0.03845236297974161,0.9989973562379748,-0.012705438355496073,-0.0428028513376845,0.00244047263117631,0.9986312136669152,-0.004011713968539216,-0.051662872898630696,-0.006763093189902947,0.883,1.639,-6.156,-3.128428649535523,0.10342285295014604,-0.007352999883024642,3.1356069538804068,0.08556221653176031,-0.02569111685736352,-0.8830000000000002,-1.639,-6.156,0
0.5263271793273727,-0.09316309611687716,-0.049889895538262945,0.5221527730481652,-0.09385650497065849,-0.03845737421181533,0.9990287442794114,-0.011752960596843668,-0.04226821807684521,0.0034669579297459748,0.9986391832158162,-0.003975076041493368,-0.051521519673541,-0.006685817295695281,0.883,1.824,-6.168,-3.128579173557777,0.1031387307355309,-0.0072892063085585245,3.133643413881043,0.08447326287495656,-0.02386352366152666,-0.8830000000000002,-1.824,-6.168,0
0.5264679931548873,-0.09316036205182131,-0.05014147673027955,0.5222358690453742,-0.09387436731621654,-0.038462133034611434,0.9990453347349245,-0.01184639748211153,-0.04184038665725844,0.003556695208255944,0.9986456176079068,-0.003958228630523589,-0.05140689809189621,-0.006616669382478767,0.898,1.848,-6.478,-3.128715595207615,0.10290846747927876,-0.0072639433848778485,3.1334661800962746,0.08361401256880767,-0.02405415113418646,-0.8980000000000002,-1.848,-6.478,0
0.5266193641570847,-0.09313685839066561,-0.050305379012994395,0.5223113640361882,-0.09387784019221762,-0.038473607778864966,0.9990429266446831,-0.011806136002320153,-0.041908884311081356,0.0035605223865847104,0.9986509166252047,-0.003934938162543916,-0.05131349832789051,-0.006555494035811466,0.907,1.843,-6.593,-3.128835472101463,0.10272068347511,-0.007224633239743566,3.1334601873741246,0.08375135187709512,-0.02397442999009008,-0.9070000000000003,-1.8429999999999997,-6.593,0
0.5266581481841842,-0.09313610200772342,-0.05061454973595582,0.5224209767501317,-0.09389034418637032,-0.03847845314207249,0.9990082671400028,-0.012198514224120651,-0.04256367448693934,0.00414705139750339,0.9986589632291147,-0.003945846863807967,-0.051166611161626796,-0.006470701963651023,0.907,1.823,-6.577,-3.1290059773944647,0.10242605419080363,-0.007257040329284244,3.1322343009381095,0.08504422660676969,-0.024818094130512343,-0.8990000000000002,-1.813,-6.568,0
0.5269221290496627,-0.09306918876061496,-0.05086911497490845,0.5225472292085025,-0.09390496403021026,-0.03848853669029112,0.9990351220333245,-0.012172581014819652,-0.041927352331879726,0.004235130375108033,0.9986687936166806,-0.003956880911099144,-0.050986902973226,-0.0063644403861867465,0.969,1.835,-6.897,-3.1292193897648537,0.10206554131561914,-0.007292235252056417,3.1320762327944767,0.08376862576176927,-0.02476617438821607,-0.9690000000000002,-1.8349999999999997,-6.897,0
0.5270690940765183,-0.09286027614960726,-0.05103373537438355,0.5226296344685913,-0.09389744159709056,-0.03850973149373069,0.999052030758666,-0.012260652624113848,-0.04142280820016876,0.004904403351335621,0.9986749017927805,-0.003937759346595214,-0.050877475553303464,-0.0062931462030104916,0.963,1.794,-7.169,-3.129359916767035,0.10184565260292536,-0.007262420080224932,3.130739958878334,0.08274119578004932,-0.024992463127617423,-0.9750000000000002,-1.7939999999999998,-7.169,0
0.5270670856384079,-0.09281911461243686,-0.051401668647698975,0.5226962123686384,-0.0938896218192707,-0.03851570518115821,0.9990258687613316,-0.01217788167250608,-0.042070218947424506,0.004929037256376286,0.9986794803460521,-0.003924787527877017,-0.05079413888568061,-0.006247692474561273,1.004,1.745,-7.288,-3.1294493498084663,0.10167827932460329,-0.007241983659772054,3.130680699911735,0.08403730434653851,-0.024836964963265432,-1.0040000000000002,-1.7449999999999999,-7.288,0
0.5271450313476364,-0.09279689304719027,-0.05199218950646362,0.5228792516622884,-0.09388651675086786,-0.03854210274634712,0.9990362782878804,-0.012322805654314725,-0.04175595196229026,0.005127335667023179,0.998693087439302,-0.003897767096512455,-0.05054652418560407,-0.006095903065718004,1.033,1.676,-7.715,-3.1297498593682556,0.10118100276040898,-0.0072060095588213965,3.130279089424115,0.083401709976845,-0.025140077293063022,-1.0330000000000001,-1.6759999999999997,-7.715,0
0.5273495143798629,-0.09268952171692904,-0.05232102117913208,0.52296685890669,-0.09387822290235075,-0.038555259266753766,0.9990538841598534,-0.012215847644229443,-0.04135196986668255,0.0052259144734788775,0.9986997234326068,-0.0039023738655713,-0.05042405597981633,-0.006019559870601036,1.062,1.626,-8.127,-3.1299028605317787,0.10093526223633424,-0.007224370299645371,3.130100878829262,0.08259188122407142,-0.02492833216846964,-1.0620000000000003,-1.6259999999999997,-8.127,0
0.5274080509094039,-0.09268828217873629,-0.05235188589470825,0.5230968249904008,-0.0938703464233819,-0.03857698734151149,0.9990822295589958,-0.012310644059647758,-0.04062249611319453,0.005305224134829747,0.9987091411759024,-0.0038835537673355077,-0.05025156158580847,-0.005910713101426599,1.136,1.549,-8.4,-3.1301184354257603,0.10058883941160737,-0.007199490158658549,3.129953106864658,0.0811287738530099,-0.025114952700112922,-1.1360000000000001,-1.5489999999999997,-8.4,0
0.5274155525115768,-0.09266749327073152,-0.05229311190026245,0.523211389400849,-0.09386115504253649,-0.03860282714909771,0.9990481842070873,-0.012571235548757732,-0.041307820384535836,0.005791337011848673,0.9987175564814984,-0.00387629606878966,-0.05009640210991252,-0.005809804616243672,1.211,1.601,-8.798,-3.13031934430877,0.10027732632532446,-0.007196764622000292,3.128938942903454,0.0824849001199601,-0.02568714577319481,-1.2110000000000003,-1.6009999999999998,-8.798,0
0.5274507659820358,-0.09266674439797457,-0.05226445875542603,0.5233644807804704,-0.09385254244266654,-0.03862200926416906,0.999047955083459,-0.013098306439696693,-0.041212637460149276,0.005321860605874367,0.9987286925975203,-0.0038715097156911855,-0.049889315011567376,-0.00567916124539226,1.249,1.574,-9.029,-3.13057987114436,0.09986164769099129,-0.007202461776115074,3.1298392687962133,0.0823002640298505,-0.026703877820348706,-1.2490000000000003,-1.5739999999999998,-9.029,0
0.5275035690215866,-0.09266562180409486,-0.05222146044152222,0.5234293290730119,-0.09385983109127603,-0.03862891449979883,0.999067874986284,-0.012704222366408523,-0.0409223215879751,0.004746938395738231,0.998733546484425,-0.003885387969666673,-0.049797512003540746,-0.00562150464841737,1.211,1.63,-9.126,-3.130696443186925,0.0996775526356873,-0.00723704624991947,3.1310322978697296,0.08173873008682972,-0.02586249461956755,-1.2110000000000003,-1.6299999999999997,-9.126,0
0.527534811392192,-0.0926649573315149,-0.05222218714135132,0.5235321353114865,-0.09385643168339106,-0.03863831268947407,0.9990301136236984,-0.013003883880707152,-0.04168363581192848,0.005233686000437643,0.9987409527170493,-0.0038882124506416293,-0.04965719416047777,-0.005544444703483845,1.23,1.573,-9.252,-3.1308505518017715,0.09939604704310138,-0.007251847401271405,3.1300108581518113,0.08324641417215389,-0.026513774096524972,-1.2300000000000002,-1.5729999999999997,-9.252,0
0.527534811392192,-0.0926649573315149,-0.05222218714135132,0.5235728117011361,-0.09385479069867748,-0.0386452046721274,0.9990570515733035,-0.013099286309478165,-0.04099220314036707,0.00531427852009894,0.9987437879636563,-0.0039028076473713474,-0.049602800675252835,-0.005510253195582208,1.252,1.541,-9.235,-3.130920306738334,0.09928703581202043,-0.007285104586216832,3.129860513906503,0.08185926440139292,-0.026702134287940864,-1.2520000000000002,-1.5409999999999997,-9.235,0
0.5277182487396042,-0.09266105739960726,-0.05225597296135865,0.5236274944028633,-0.09385422047291772,-0.03864962202088568,0.9990718057610048,-0.012574052537728992,-0.040734395956121196,0.005771920132329938,0.9987475224331931,-0.003931775774301204,-0.04953003653763806,-0.005467145593308921,1.252,1.562,-9.266,-3.1310092711677897,0.0991413239867258,-0.007348276308049786,3.1289930261704884,0.08133767640424906,-0.025682717789069266,-1.2520000000000002,-1.5619999999999998,-9.266,0
0.5277002128509323,-0.09264078776726778,-0.052270318130426034,0.5236746038239758,-0.09386086671049754,-0.0386505161769449,0.9990699902811921,-0.012533705553871266,-0.04079081456324971,0.005775477164423742,0.9987508941177375,-0.003986675513369174,-0.04946192959869418,-0.005427896755302186,1.242,1.544,-9.274,-3.131093087608791,0.0990052342493053,-0.007463058809434867,3.1289876781267827,0.08145101258857994,-0.025602940695050782,-1.2420000000000002,-1.5439999999999998,-9.274,0
0.5277283080962936,-0.09259887771496828,-0.05240382776635133,0.5237279703424256,-0.09386208577135034,-0.038651969192730284,0.9990490937186981,-0.012847452340585097,-0.04111753957625736,0.006354931435327581,0.9987547248024532,-0.003994119962782886,-0.04938829590416783,-0.005387907138864117,1.261,1.561,-9.3,-3.1311736254052303,0.09885756851919641,-0.007482696679829432,3.1277913245387565,0.08208574412981821,-0.026284590266408805,-1.2610000000000001,-1.5609999999999997,-9.3,0
0.5278412383941451,-0.09259644942174013,-0.052495128730706796,0.523777408947159,-0.093857116732681,-0.038656975575143665,0.9990760984771179,-0.012942999692588174,-0.04041303441904984,0.006434341772972484,0.9987583669062734,-0.00399306563577796,-0.04931886360266658,-0.00534941863016351,1.273,1.532,-9.342,-3.1312503304404675,0.09871823804023651,-0.007485073158038285,3.1276437770971546,0.08067230852493312,-0.026471318913371452,-1.2730000000000001,-1.5319999999999998,-9.342,0
0.5279732974914352,-0.09259360985646303,-0.05267562494652711,0.523845200978956,-0.09385049008242528,-0.03866426182684035,0.9990712575154705,-0.01294233514506079,-0.040532094673510495,0.006438444160680865,0.9987634123161765,-0.0040038188120116855,-0.0492213245301857,-0.005297498442156323,1.283,1.542,-9.391,-3.1313549812295927,0.0985226476980263,-0.007512738715261286,3.127632307243264,0.08091049590039481,-0.026472242579032496,-1.2830000000000001,-1.5419999999999998,-9.391,0
0.5279732974914352,-0.09259360985646303,-0.05267562494652711,0.523893212662605,-0.09386164701235905,-0.03866661327715157,0.9990710032917425,-0.012942301407484397,-0.040538336993567736,0.006438660116215626,0.9987672433401998,-0.004008611508126446,-0.0491475443441467,-0.0052564411851928425,1.308,1.592,-9.514,-3.131437386619426,0.09837465136013239,-0.007527121054356852,3.127631704032439,0.08092298403925108,-0.02647229337867794,-1.3080000000000003,-1.5919999999999999,-9.514,0
0.5280009349731246,-0.09261369280705507,-0.05270585451500855,0.5239761464640582,-0.09385974383163907,-0.03867375739365403,0.9990699747271243,-0.012982306733599326,-0.04055108197745233,0.006437464598743108,0.9987734685939137,-0.003993386564021944,-0.04902914290601039,-0.00519047856384273,1.334,1.574,-9.633,-3.1315675132139185,0.09813691731180972,-0.007504184800127646,3.127630499403317,0.08094796456130093,-0.02655261476391651,-1.3340000000000003,-1.5739999999999998,-9.633,0
0.528080408468608,-0.09263267354855592,-0.05292954359429322,0.5240187713735853,-0.09386269679795714,-0.03867629852842025,0.999064823258056,-0.014038766475056095,-0.04029421759749111,0.006629761996357841,0.9987767663146601,-0.003986458594730717,-0.04896605756493527,-0.005156651035801821,1.36,1.6,-9.683,-3.1316343178439485,0.09801027414541073,-0.007494198576282912,3.1271669138015654,0.08041355896336383,-0.02868216226949296,-1.3600000000000003,-1.5999999999999999,-9.683,0
0.5281718181518356,-0.0926514132488733,-0.05306498155968629,0.5241037901519273,-0.09386437553562313,-0.038685048382817666,0.9990648133323023,-0.013551051746898744,-0.040381797775560856,0.007096758616590024,0.9987832158788182,-0.003968156555535733,-0.04884335989243434,-0.005084705782290663,1.384,1.678,-9.788,-3.1317761258451204,0.09776386971149616,-0.0074656664654792464,3.126267501746925,0.08058291339583028,-0.027743494472417137,-1.3840000000000001,-1.6779999999999997,-9.788,0
0.5282857383636276,-0.09264899103531891,-0.05326030931847535,0.524148465569412,-0.0938673623633471,-0.03869225423525674,0.9990688543426044,-0.014041427424978834,-0.03999205995140955,0.00775135411585117,0.9987863556454035,-0.004002118077979985,-0.04878070092441629,-0.005042684764915347,1.383,1.713,-10.013,-3.131863390747437,0.09763842134439045,-0.0075385265351695695,3.12492735642624,0.07977655626963881,-0.028772157100941224,-1.3830000000000002,-1.7129999999999999,-10.013,0
0.5283846382049362,-0.09264688818345124,-0.053337001899652105,0.5242379728016892,-0.09387065827109561,-0.03869804709838576,0.9990696272113705,-0.014041557788783575,-0.03997283408308565,0.007750672571407465,0.9987926438895253,-0.004024467844963909,-0.0486574656435141,-0.004969490102095986,1.404,1.674,-10.03,-3.1320116735206165,0.09739132420488703,-0.007591660186877381,3.124929293264482,0.07973809698419382,-0.0287719980289979,-1.4040000000000001,-1.6739999999999997,-10.03,0
0.5285064662841599,-0.09264429788479858,-0.053473618606500246,0.5243154202021602,-0.09387367788693785,-0.03870534734117656,0.99909285900489,-0.014137364771315695,-0.03933749034470085,0.007832087493744307,0.9987981381893972,-0.004095123007610674,-0.04854561898558743,-0.004900879051020863,1.411,1.705,-10.17,-3.1321555305506563,0.09716751657038031,-0.0077411626370423375,3.1247777462695363,0.07846264418294122,-0.02895839876703874,-1.4110000000000003,-1.7049999999999998,-10.17,0
0.5285917247680466,-0.09264248506913238,-0.05353526220696411,0.5243659323892819,-0.09387835640671828,-0.03870964182257605,0.9990788444595773,-0.014533643026828372,-0.039431851434104596,0.008399437464436102,0.998801622943433,-0.0041709879685118845,-0.048472350337056457,-0.004851673518233922,1.439,1.772,-10.228,-3.132261180564687,0.09702113691665647,-0.007898864250052644,3.1236063658398536,0.07862790073107714,-0.02979938593675274,-1.4390000000000003,-1.7719999999999998,-10.228,0
0.5286187671569627,-0.09264191036114745,-0.05356565485375366,0.5244789438616958,-0.09388671694881302,-0.03871799093434444,0.9990933726935163,-0.014137455248729468,-0.039324500060274686,0.007831630248829866,0.9988094528112224,-0.004309875471908651,-0.0483087687011683,-0.004748834325743588,1.39,1.727,-10.243,-3.1324799207967136,0.09669405037165064,-0.008189012075652575,3.1247790505117803,0.07843665917514091,-0.028958295313314716,-1.3900000000000001,-1.7269999999999999,-10.243,0
0.5286986583617966,-0.09264021162877135,-0.053553112129144285,0.524533020188806,-0.09388328255239957,-0.038726310597759106,0.9990845867095102,-0.014534741657739176,-0.03928679460287152,0.008394244318306418,0.9988131692866143,-0.0043490035648905785,-0.04823298037041504,-0.00470162132543131,1.456,1.767,-10.462,-3.1325779153870945,0.09654226574017731,-0.008272754553617466,3.12362123352942,0.07833774484615347,-0.029798221370439224,-1.4560000000000002,-1.7669999999999997,-10.462,0
0.5288624805358689,-0.09263672833333068,-0.053498466590814205,0.5246214537481545,-0.09388738700294173,-0.038732098071859844,0.9990892896986078,-0.014044961130587692,-0.03948053196423901,0.00773328022992933,0.9988190203524618,-0.004483804629539437,-0.048107053692649615,-0.004621479020898405,1.47,1.68,-10.549,-3.1327508581529817,0.09629065452857659,-0.008552087557533304,3.1249787577349526,0.07875330655427328,-0.02876808957781927,-1.4700000000000002,-1.6799999999999997,-10.549,0
0.5292270893005173,-0.0926913016308313,-0.053805677513055414,0.5247143347849377,-0.09388997641680326,-0.03873740016030627,0.9991031222835802,-0.014130505869708496,-0.038862952939152894,0.00883948387874333,0.998824740088148,-0.004726359672561357,-0.0479730507871776,-0.0045357584392060534,1.462,1.723,-10.583,-3.132945246860426,0.09602371249644497,-0.009048227490100633,3.1227734818290105,0.07748389158035747,-0.02901383309123948,-1.4620000000000002,-1.7229999999999999,-10.583,0
0.5292701190856736,-0.09281506733784728,-0.05385141954796752,0.5247700150327677,-0.09389219229924295,-0.03873870491448289,0.999098960537108,-0.014370803032806544,-0.03888380220768649,0.008830781733778468,0.9988280339985903,-0.004885777421532044,-0.04789330264857434,-0.00448395203773439,1.439,1.687,-10.409,-3.133063906464082,0.09586492884674061,-0.009373777149134321,3.1227716069077975,0.07752134340151537,-0.02949530413637635,-1.4390000000000003,-1.6869999999999998,-10.409,0
0.5292346481231491,-0.09285734646210722,-0.05377610311882934,0.5249574075166994,-0.0939060773287648,-0.03874639490171808,0.9991255141030129,-0.014547951437518525,-0.038111304155222014,0.008903839317662837,0.9988400623430524,-0.005146081560807456,-0.04762931861797465,-0.0043223009444984225,1.535,1.698,-10.791,-3.1334109636984966,0.0953369852421852,-0.009913669479738664,3.1226356716613006,0.07596994228001117,-0.02983961575009544,-1.5350000000000001,-1.6979999999999997,-10.791,0
0.5292616161254685,-0.0928567967880731,-0.05380659304039916,0.5250969325740257,-0.09390723815640915,-0.03875975145100563,0.9991250352066822,-0.014547847838543185,-0.038123794385677374,0.008904275928418866,0.9988482024055957,-0.00541051424937443,-0.047439806680071764,-0.004200736808076227,1.51,1.864,-10.774,-3.133678390603246,0.0949584315532331,-0.010457302417444834,3.122634412394883,0.07599492560634159,-0.029839707398994227,-1.5100000000000002,-1.8639999999999999,-10.774,0
0.5293324321655076,-0.09287613658795409,-0.053749246696405024,0.5252242869873914,-0.09392346887067857,-0.03876674448836756,0.9991331182014785,-0.014589767437854754,-0.03789747334990004,0.008894829316991273,0.998856157588362,-0.0056138370722525624,-0.04725841121477463,-0.004085388682715283,1.537,1.746,-10.826,-3.133927405659203,0.09459559509835012,-0.010877538887340213,3.122657273102316,0.07554152051047862,-0.02991819744849149,-1.5370000000000001,-1.7459999999999998,-10.826,0
0.5295083164123338,-0.09287256638894133,-0.05360574350731811,0.5253355757387301,-0.09392861782124202,-0.038769793086692345,0.9991305858062248,-0.014497963802268077,-0.038022313703385324,0.008796073066740587,0.9988631019777083,-0.005817304460607147,-0.04709571944901692,-0.003980229231785941,1.522,1.776,-10.727,-3.1341560259142667,0.09427022718399232,-0.011296877308838072,3.1228582475527693,0.07579601712987094,-0.02972933641862709,-1.5220000000000002,-1.7759999999999998,-10.727,0
0.5295782054809373,-0.09285034482369474,-0.053548285583428945,0.5254194855576251,-0.09393736940199882,-0.03877696066577835,0.9991242986088754,-0.014856781592089297,-0.03791488520350206,0.009357301315468435,0.9988678962106076,-0.006031619004386549,-0.046974559102612896,-0.0038888064650003155,1.521,1.824,-10.809,-3.1343584219597,0.09402816354348735,-0.01173634375393547,3.1217096270109264,0.07555719818084798,-0.030488802560795825,-1.5210000000000001,-1.8239999999999998,-10.809,0
0.5296055911926072,-0.09287059156785062,-0.05357878981011351,0.5254996518921254,-0.09394317317832711,-0.038775183466445984,0.9991387549413449,-0.014499686350056114,-0.03780811301717845,0.008788614710010514,0.998872711262743,-0.00614187652497275,-0.046863391725391994,-0.0038200894641753445,1.527,1.851,-10.696,-3.134505459266641,0.09380556424808717,-0.011964748702484262,3.1228797595013122,0.07536756871963082,-0.029727716214166325,-1.5270000000000001,-1.8509999999999998,-10.696,0
0.5296999362853806,-0.09286867647061399,-0.0536856003798767,0.5255349523292804,-0.09394943001104127,-0.0387778927544801,0.9991370927790111,-0.014499334117109151,-0.037851794125275826,0.008790137270924118,0.9988743837378407,-0.006292671467685926,-0.046810960710715,-0.003779982353996433,1.524,1.898,-10.671,-3.134599529235963,0.09370116586850549,-0.012271425951890938,3.1228753696924034,0.07545494021987886,-0.029728043943934624,-1.5240000000000002,-1.8979999999999997,-10.671,0
0.529861498251323,-0.09286539702305845,-0.0538688860930725,0.5256181616243863,-0.09396074854329899,-0.03877593377597943,0.999158149699403,-0.01459515343354708,-0.037235089942930094,0.008871704319765547,0.9988793224627475,-0.006454639164597064,-0.04668918478451709,-0.0037071977185607653,1.536,1.868,-10.614,-3.1347593517083694,0.09345756837906849,-0.012603975141141758,3.12272403878461,0.07421663282158428,-0.029913204233520795,-1.5360000000000003,-1.8679999999999999,-10.614,0
0.5299829486755173,-0.09288376800904324,-0.054006512741021716,0.5256484165445291,-0.09395382360814428,-0.0387806065284744,0.9991552237584731,-0.014634724899829936,-0.03729785588372159,0.008872388586789112,0.9988808677433783,-0.006529392198762242,-0.0466477686091364,-0.003681205510006681,1.562,1.816,-10.642,-3.134818016178227,0.09337482708428696,-0.012756645894478901,3.122717745960442,0.07434146280947769,-0.02999389566366971,-1.5620000000000003,-1.8159999999999998,-10.642,0
0.5300520194915573,-0.09288237147221616,-0.0542916623153015,0.5257480328386648,-0.09395704115410117,-0.03878315625363765,0.9991669754006511,-0.014199663330207439,-0.03701325635428058,0.009430239343670856,0.9988873647189642,-0.006596581227713841,-0.04650515914335071,-0.0036019975259627083,1.55,1.781,-10.73,-3.1349814884518445,0.09308873884187487,-0.012899667589904714,3.121640967087505,0.07376390913529669,-0.029157165141377468,-1.5500000000000003,-1.7809999999999997,-10.73,0
0.5301123412994186,-0.09288115196118406,-0.054636306861810285,0.5257932826225593,-0.09396155951308532,-0.038789662141377745,0.9991775036373515,-0.014784967604821097,-0.036296103499710616,0.010173469266918476,0.9988902148934158,-0.006657522777567926,-0.046438461470477234,-0.003559742297938446,1.614,1.793,-11.068,-3.135071136610963,0.09295505505330473,-0.013026254971522365,3.1201312671978827,0.07229462970072743,-0.030368109473884873,-1.6140000000000003,-1.7929999999999997,-11.068,0
0.530129501715068,-0.09288080506215146,-0.05527773962395628,0.5258991847827446,-0.0939649976130088,-0.038803593209079834,0.999200728302105,-0.015062080359018019,-0.03545383734521504,0.010452240032955739,0.9988961789168582,-0.006779316632675992,-0.04629900761457425,-0.0034717410083074714,1.658,1.802,-11.189,-3.1352572969675565,0.09267547969620511,-0.01327956613387239,3.1195800509210083,0.07059475686176139,-0.030923166291609086,-1.6580000000000001,-1.8019999999999998,-11.189,0
0.5302547859100143,-0.0928782719839578,-0.05559532175438841,0.5260005513298219,-0.09396347446414613,-0.03881502722375016,0.9991869716944147,-0.015058340335652487,-0.0358370661384528,0.010465767147589265,0.9989027131820415,-0.006789103014192621,-0.04616217116703626,-0.003393834226277144,1.688,1.786,-11.472,-3.1354127711149924,0.09240054594707388,-0.013307131480003535,3.1195407234582504,0.07136121651102344,-0.03092594767129051,-1.6880000000000002,-1.7859999999999998,-11.472,0
0.530392383947734,-0.09287548999676755,-0.05571971044915159,0.526052208546291,-0.0939520442441146,-0.038829785511211856,0.9992092792272383,-0.01515455658486636,-0.035144827992133955,0.01054430563175328,0.9989061085393882,-0.0067945326554640015,-0.046090949661280856,-0.0033513411416885,1.763,1.794,-12.012,-3.1354976195186772,0.09225742203330155,-0.013322315829912265,3.1193991699303494,0.0699715710086167,-0.03110742786704181,-1.7630000000000001,-1.7939999999999998,-12.012,0
0.5304945510772506,-0.09287342433819822,-0.05587276087182005,0.5261794780414771,-0.09396455306661194,-0.038841130329954926,0.9991666596438957,-0.015455619757418809,-0.036062386307534,0.011036300023440214,0.9989142646772645,-0.006884125306206997,-0.045908223505066556,-0.003243783467875705,1.825,1.878,-12.145,-3.1357193366737057,0.09189068454698064,-0.013512889641828006,3.118361575971441,0.07178515932772055,-0.031768619158897775,-1.8250000000000002,-1.8779999999999997,-12.145,0
0.530641012564067,-0.0928704628218179,-0.05614712152855833,0.5262588495572137,-0.09396953471724352,-0.03884746296216707,0.9992050960998587,-0.015114743987206018,-0.034926909232473276,0.011662634972168458,0.9989196069928064,-0.006898276270290973,-0.045794209065675474,-0.0031795343174502192,1.878,1.775,-12.515,-3.1358480548257432,0.0916616339755359,-0.01354772445976178,3.117168478068651,0.06950167684148474,-0.03110022391274169,-1.8780000000000001,-1.7749999999999997,-12.515,0
0.5307822383788864,-0.09284670739064267,-0.056346881011895736,0.5263423788495545,-0.09395739800389866,-0.038860609915946226,0.9991974003414571,-0.015604513625430177,-0.03507998741506606,0.011208671489027312,0.9989245466149643,-0.0069777697187278455,-0.04567875317032577,-0.003114301834623317,1.898,1.844,-12.634,-3.135984713428893,0.09143004834067635,-0.013713724089564781,3.118038719031601,0.06981054265996914,-0.03205393069244231,-1.8980000000000001,-1.8439999999999999,-12.634,0
0.5307915481475631,-0.09286741940865567,-0.056496704200677476,0.5264356753155102,-0.0939667072798309,-0.03886609957010287,0.9991874022623618,-0.015641814727592636,-0.03534457526068157,0.011216742594116974,0.9989301565945234,-0.007112127529103857,-0.04554066719491457,-0.0030321572578026193,1.921,1.79,-12.846,-3.1361599758042824,0.09115319993103882,-0.013991405683031838,3.118010972082753,0.07033879464959245,-0.03213609289321871,-1.9210000000000003,-1.7899999999999998,-12.846,0
0.5308180641082565,-0.09286688332448056,-0.05652766046898802,0.5264923532939219,-0.09396021030234042,-0.03888053631237598,0.9992124948582427,-0.015206474797864362,-0.034643298168052,0.011755029680500058,0.9989332938012601,-0.007174980252535279,-0.04546515141243714,-0.00298339648701619,1.99,1.728,-13.246,-3.136262516990898,0.09100166860742645,-0.01412227501149271,3.116986357570139,0.06892909758494287,-0.031282842041230226,-1.9900000000000002,-1.7279999999999998,-13.246,0
0.5308092235473434,-0.09286706178078702,-0.05648245916741332,0.5266308414175189,-0.09396193550958717,-0.03888985606547388,0.9991941468489709,-0.016138105379641464,-0.03471546211278072,0.011859198722766206,0.9989414869889196,-0.007285287507604641,-0.04527416345494143,-0.002875191798231623,2.02,1.748,-13.474,-3.1364870074638924,0.09061834415311623,-0.014354194998852382,3.116710796567549,0.06904705360999236,-0.03315866847474635,-2.02,-1.7479999999999998,-13.474,0
0.5308794845489303,-0.09284473364243558,-0.05642546472924193,0.5266731922243219,-0.09396372415721681,-0.03889430887699882,0.9991810662463727,-0.016003605557980395,-0.03517999066051325,0.011774344498925287,0.9989439210183242,-0.007320581985340223,-0.04521684861328559,-0.002841616626744947,2.02,1.818,-13.545,-3.1365567697939922,0.09050329585393463,-0.01442827224722727,3.1168739808148613,0.06998260730563029,-0.032895882602991755,-2.0200000000000005,-1.8179999999999998,-13.545,0
0.5308750728515426,-0.09284482304940274,-0.05645519361870727,0.5267578175980674,-0.09397165015289878,-0.03889673302139329,0.9991788335017995,-0.016002911264976015,-0.03524289856395569,0.011776632850194486,0.998947631906648,-0.007487439822312753,-0.04511166283449631,-0.0027733122861109925,2.018,1.807,-13.498,-3.1367074409334075,0.09029254620226626,-0.014769603688642783,3.1168672596282136,0.07010841431205143,-0.03289635740869526,-2.018,-1.8069999999999997,-13.498,0
0.5309060005096237,-0.09284419541249325,-0.05645642099755248,0.5268270486250561,-0.0939790762977691,-0.03889949714547336,0.9991806235532996,-0.016003467305289475,-0.03519247315603933,0.011774797254166558,0.9989510168266404,-0.0075884830734784465,-0.04502305442082576,-0.0027188050059526315,2.04,1.797,-13.555,-3.1368246503006008,0.09011483134813042,-0.014977558815096171,3.116872649841847,0.07000757058393113,-0.032895975668755115,-2.04,-1.7969999999999997,-13.555,0
0.5310340312866012,-0.09284159617314389,-0.05632685671227416,0.5268779387537148,-0.09396429348101798,-0.03890645817123345,0.9991968218384721,-0.01600855600037783,-0.034732836700969064,0.011758098656034312,0.9989523309192585,-0.007756443360576014,-0.04496747750919782,-0.0026815137105663197,2.07,1.778,-13.622,-3.136913820008819,0.09000379713583766,-0.015318071009148528,3.1169217081360054,0.06908836874404256,-0.03289256821204464,-2.07,-1.7779999999999998,-13.622,0
0.5310251678375045,-0.09284177641758969,-0.05628162966149291,0.52692788605177,-0.09397366024085725,-0.03890778176385348,0.9991818002397925,-0.016408494216373668,-0.03478291970575871,0.012321740459043355,0.9989535440984798,-0.007929498371506288,-0.044912703364253445,-0.00264107251521457,2.061,1.758,-13.572,-3.137009741557602,0.08989431673728349,-0.015669072658173158,3.1157630033924506,0.06915967755341243,-0.033734337477099426,-2.061,-1.7579999999999998,-13.572,0
0.5310340312866012,-0.09284159617314389,-0.05632685671227416,0.5269755422337464,-0.09397482708345847,-0.03890476536390047,0.9991793722591202,-0.016407693910035343,-0.034852075340353075,0.01232428014508087,0.9989547318869176,-0.008033077511165656,-0.04486949382724582,-0.002613086489414332,2.054,1.78,-13.683,-3.137074556716261,0.08980784335573581,-0.01587952554943539,3.1157555066948004,0.06929797406738199,-0.03373486398220564,-2.054,-1.7799999999999998,-13.683,0
0.5310605472472946,-0.09284105794320156,-0.05635782156365355,0.5270436680718696,-0.09397478428824843,-0.03891525086214398,0.9991789336230649,-0.016407550181444762,-0.03486455481169937,0.012324736221145213,0.9989560289871988,-0.00822054522505515,-0.044809715789010246,-0.0025594009885807506,2.078,1.737,-13.647,-3.13719819702663,0.08968814383474878,-0.016260624480306234,3.115754158255011,0.06932293043934196,-0.03373496035095114,-2.078,-1.7369999999999999,-13.647,0
0.5310605472472946,-0.09284105794320156,-0.05635782156365355,0.5270739659193208,-0.09397922353998324,-0.03891547894889302,0.9991963845761509,-0.016008421242745898,-0.03474532271550342,0.011758550731314047,0.9989565093042736,-0.008319691303079007,-0.044781860441772334,-0.002539015338457416,2.091,1.749,-13.768,-3.137247566274893,0.08963247903006986,-0.01646143787322191,3.1169203784718995,0.06911333861640019,-0.032892666940083824,-2.091,-1.7489999999999999,-13.768,0
0.5309726737884323,-0.09286375694165279,-0.05642913828270873,0.5271258261810632,-0.09398238066772695,-0.03891651770996446,0.9991857770445549,-0.016045363402045983,-0.035029159388786854,0.011767443162664258,0.9989575254062576,-0.008422175106274618,-0.04474178014453715,-0.0025077619865728064,2.089,1.735,-13.615,-3.137318824471082,0.08955216486363848,-0.016669954669294693,3.1168901296089455,0.06968002249525201,-0.03297498605070136,-2.089,-1.7349999999999999,-13.615,0
0.5310132774261276,-0.09290477328190852,-0.056475592712335196,0.5271491803347444,-0.09397815172631777,-0.03891736958370265,0.9991838254816423,-0.016125314826879848,-0.03504882342593605,0.011765310984571401,0.9989579858353859,-0.008455729199977037,-0.04472580369846561,-0.0024964014498338205,2.09,1.729,-13.731,-3.1373443669105647,0.08952013433162744,-0.016738332596594078,3.1168881310927494,0.06971745976086656,-0.03313557267707208,-2.09,-1.7289999999999999,-13.731,0
0.5310534290221969,-0.09292488949189234,-0.05641732511895141,0.5271741214929488,-0.09398464917201434,-0.03892165920472748,0.9991893885477131,-0.01616734256080183,-0.03487303873750988,0.011757527773847015,0.9989578291778569,-0.008567757878376136,-0.04470920058234372,-0.0024744252982598705,2.084,1.755,-13.872,-3.13739823997447,0.08948699882324754,-0.016965091594993462,3.1169069480603673,0.06936497609641734,-0.033214481900650336,-2.084,-1.7549999999999997,-13.872,0
0.5311417430785934,-0.09292312495598841,-0.056450753311090084,0.5271900224452976,-0.09398415729874297,-0.03892455092583083,0.999192490957389,-0.016168323559152424,-0.03478465842332759,0.011754331450730848,0.9989579821474625,-0.00860375027798286,-0.04469943590061221,-0.0024641753748220053,2.086,1.73,-13.771,-3.137421870340227,0.08946742693779348,-0.01703824209231728,3.1169163796036794,0.06918823092232827,-0.03321383379692597,-2.086,-1.7299999999999998,-13.771,0
0.5312476753143112,-0.09292100851426173,-0.056574747184686275,0.5272128031369753,-0.0939868389960625,-0.03892352989880171,0.9992158422186314,-0.015733375208926648,-0.034120403880639014,0.012294108818708004,0.9989586127097285,-0.008623128537957336,-0.044682298808506174,-0.0024515839648920662,2.093,1.751,-13.814,-3.1374485807382197,0.08943298546891357,-0.0170782922302768,3.1158878376655066,0.06785249360088112,-0.03236113704374767,-2.093,-1.7509999999999997,-13.814,0
0.5314061073211471,-0.0928968936670785,-0.056551158050469966,0.527233708626345,-0.09398586324010112,-0.038923444527204254,0.9992097601244797,-0.016096681528408433,-0.03392364462436899,0.012850054636698848,0.9989586682433251,-0.00868392034550055,-0.044669823356093714,-0.0024416979119274906,2.106,1.717,-13.739,-3.137473657777301,0.08940809242554577,-0.017201165380314572,3.1147562762298997,0.06743107648107288,-0.03312107739214196,-2.106,-1.7169999999999999,-13.739,0
0.5314193366912643,-0.09289662830719995,-0.05656667337792358,0.5272586995368158,-0.09398993206796136,-0.03892197131411476,0.9991883676893257,-0.015999513112403982,-0.034621659293897544,0.012772925672711983,0.9989593732766808,-0.008691818307157125,-0.04465317072488901,-0.002429715853968119,2.158,1.8,-13.819,-3.1374981200292567,0.08937458128457876,-0.017218127250155715,3.114893029056694,0.06883273871353966,-0.032941444833578984,-2.16,-1.7909999999999997,-13.84,0
0.5315339092162887,-0.09289433019051599,-0.0567361660994812,0.5273416506169829,-0.09399493306986915,-0.03892819357212479,0.9991874495911529,-0.016494804204422862,-0.03416779562755842,0.01342047488504971,0.9989612911548406,-0.00868229200943322,-0.04461413282205941,-0.0023920850304656165,2.155,1.781,-13.868,-3.1375720903790985,0.08929574373657101,-0.017202489508498342,3.1135778703912482,0.06788946711120897,-0.03396465523281967,-2.155,-1.7809999999999997,-13.868,0
0.5316659797576706,-0.09289168088326501,-0.05689153967278442,0.5273797157181048,-0.09400107366212745,-0.038931156088700986,0.999185296072491,-0.016494001839032206,-0.034230205370967874,0.013422758533460482,0.9989620448703591,-0.008688660601186247,-0.044597028036004474,-0.0023730810671925896,2.197,1.771,-14.02,-3.1376104922150185,0.08926119957743625,-0.017217010403307646,3.1135711049456525,0.06801427197812916,-0.03396510129930476,-2.197,-1.7709999999999997,-14.02,0
0.5317751563934128,-0.09284753172287988,-0.05698612223046265,0.5274763695330609,-0.09400670154504205,-0.038937909895405964,0.9991870650366874,-0.01641401097374739,-0.03421612584120488,0.013425030456656628,0.9989630274326666,-0.008805184356415674,-0.04455470194338879,-0.0023245244508576833,2.293,1.838,-14.078,-3.1377176056067273,0.08917608221260231,-0.01745521266054475,3.113572509026047,0.06798826963098639,-0.03380456263952898,-2.2930000000000006,-1.8379999999999999,-14.078,0
0.5318059982208053,-0.09284690837750481,-0.056987409690789796,0.5275628523452135,-0.09401515798202065,-0.038942878123146146,0.9991919068255112,-0.015883495000841977,-0.03414217093778034,0.013883283849684071,0.998963762201578,-0.008927645386186449,-0.04451613561579205,-0.0022801191781223504,2.328,1.857,-14.131,-3.1378169670790768,0.08909856366173143,-0.017704935218278414,3.1126931616944233,0.06784015629536534,-0.032770563143154983,-2.3280000000000003,-1.8569999999999998,-14.131,0
0.5319331649688522,-0.09282334463486717,-0.057067804435662846,0.5276537951899336,-0.09401713238724504,-0.03895207166397399,0.9991949412788064,-0.015844337742164937,-0.034071956082039265,0.013882131858399186,0.9989650905559789,-0.00897952342290685,-0.04447807514210408,-0.002236773224568385,2.324,1.846,-14.388,-3.137907885810026,0.08902179362538225,-0.017812960931898422,3.112700571129606,0.06770085082981567,-0.032689842801014536,-2.3240000000000003,-1.8459999999999999,-14.388,0
0.5321674484161178,-0.09267150871644066,-0.05724309645073853,0.5277336389289335,-0.09402350807831418,-0.03895186842479878,0.9992021907722807,-0.015564877367413353,-0.033985385389736826,0.013888688292750436,0.9989666789036432,-0.009006056090010773,-0.044438727960838344,-0.0022025353740633543,2.323,1.87,-14.3,-3.137978240368613,0.088942510202762,-0.01786932518850576,3.112709352362297,0.06753551867560315,-0.03212769861907445,-2.3150000000000004,-1.8599999999999999,-14.291,0
0.5324262336639206,-0.09266610996613549,-0.05747981462853394,0.5277786232562031,-0.09402518672878815,-0.03895229086040525,0.9992202012155014,-0.01619354422179416,-0.03331003632701191,0.013505018557745357,0.9989676856330736,-0.009011216064531764,-0.044415983515879366,-0.002183521177081014,2.341,1.785,-14.139,-3.138016439936673,0.08889665663960472,-0.01788141879691827,3.1134593049235453,0.06617903058184514,-0.033340685710248855,-2.341,-1.7849999999999997,-14.139,0
0.5324918884185593,-0.09266474060902642,-0.05755792055504761,0.5278935647752188,-0.09402536584883431,-0.0389583997597652,0.9992191516663437,-0.016193146342302105,-0.03334122959974973,0.013506176421438297,0.9989696534147077,-0.009060391406579157,-0.044364098992140485,-0.0021339847384174064,2.417,1.728,-14.445,-3.138119270201006,0.08879207394284808,-0.017984582481207288,3.113455910715459,0.06624140841550667,-0.033340914523446424,-2.417,-1.7279999999999998,-14.445,0
0.532574669256572,-0.0926630136240487,-0.05772715292351685,0.5279860798209357,-0.09401347122221038,-0.03896365777112387,0.9992134314641645,-0.016190970958253843,-0.03351074024569368,0.013512459715774918,0.9989714329680812,-0.009084947857437782,-0.04432061497758713,-0.0020998162244592906,2.435,1.363,-14.369,-3.138189221166831,0.08870449255008125,-0.01803696626228416,3.113437483355507,0.06658038414113952,-0.03334213517306332,-2.435,-1.3629999999999998,-14.369,0
0.5326140026000779,-0.09266219322571802,-0.05777407656090699,0.528123469054885,-0.09399777477233963,-0.038973445013478214,0.9992147842429094,-0.01668860063962671,-0.03295630051852562,0.014155323192733184,0.9989739638277952,-0.009142797439088069,-0.04425412156871743,-0.002046429160725609,2.427,1.492,-14.711,-3.138300264394301,0.08857060765600672,-0.018157877056853084,3.112136674910315,0.06543506643331691,-0.034364299607762966,-2.427,-1.4919999999999998,-14.711,0
0.5326134532836716,-0.09266220466980982,-0.057879456619195566,0.5282278401056559,-0.0940089119722355,-0.03897777683845241,0.9992082751081435,-0.01668596835772136,-0.03315126132873562,0.014162649736715164,0.9989762330804721,-0.009198081400021329,-0.044193792512728196,-0.0019940000803061442,2.455,1.511,-14.497,-3.1384092522154705,0.08844905990157197,-0.018273530406279697,3.1121150756244633,0.06582491963742919,-0.034365709521727475,-2.455,-1.5109999999999997,-14.497,0
0.5327384628204148,-0.0926595968473916,-0.05827681551354371,0.5284027512543726,-0.09402364351750182,-0.038982111384919554,0.9992298952605304,-0.016376468857338847,-0.03284989651737578,0.013692968759796057,0.9989806634654076,-0.009330590003634159,-0.044069938127143674,-0.0018976164257074155,2.463,1.563,-14.963,-3.13861206749001,0.08819975321726051,-0.01854805977960403,3.1130870937426525,0.06524699710661143,-0.03370542753638569,-2.463,-1.5629999999999997,-14.963,0
0.5327984069732469,-0.09265834622273492,-0.058490605453424084,0.5284888778501374,-0.09402671379270083,-0.03897948891857114,0.9992181420764691,-0.017403455954035144,-0.03259654478022888,0.01388793636532085,0.9989830719843777,-0.009355225344840339,-0.04401172083056032,-0.0018591280076484874,2.449,1.569,-15.189,-3.138690374405793,0.0880825677731214,-0.018600956972383658,3.112639009471299,0.06470386028335222,-0.035767551607910016,-2.449,-1.5689999999999997,-15.189,0
0.5327592853454393,-0.0927012808788781,-0.05854898748772584,0.5285532907337777,-0.094023861754159,-0.03899479343913628,0.9992305787397784,-0.01757932913742983,-0.03208220144857524,0.013969082325864692,0.998984089945952,-0.009409042538432812,-0.0439787977106908,-0.0018192252290099911,2.469,1.532,-15.236,-3.1387745567161165,0.08801606964096609,-0.01871247547755971,3.1124846612765307,0.0636669025604126,-0.03610891369254718,-2.469,-1.5319999999999998,-15.236,0
0.5327610134033006,-0.09278548114190148,-0.05854898748772584,0.5286355087846656,-0.0940287502626169,-0.03899866884647904,0.9992277452869598,-0.017739649937784555,-0.03208444417792143,0.013963935536956126,0.9989855029758536,-0.00952125676752417,-0.043924280219571045,-0.001776059047261514,2.457,1.556,-15.356,-3.138870025357808,0.08790643198453314,-0.01894143758529471,3.112484659595028,0.06366690629148916,-0.03642980120876904,-2.457,-1.5559999999999998,-15.356,0
0.5327963813689989,-0.09278476052174614,-0.05852052889244996,0.5286752567152895,-0.09403049320658777,-0.03900139054107604,0.9992350189366234,-0.017207981632476384,-0.0319466498999374,0.014417320614078157,0.9989863371596008,-0.009569632587309617,-0.04389574977605313,-0.0017520595400260474,2.451,1.548,-15.321,-3.138921890867938,0.08784899308046594,-0.019040620142089168,3.1116156169102855,0.06339068275750646,-0.035389257871840434,-2.451,-1.5479999999999998,-15.321,0
0.5327963699249071,-0.09301643614659355,-0.05855045233147584,0.5287213491182303,-0.09403701106317326,-0.03900110261282683,0.9992252967856988,-0.017647993656878823,-0.03201592684562237,0.014405561853888582,0.998987532168964,-0.009631862058862873,-0.04385600000172,-0.0017249123962685263,2.477,1.555,-15.365,-3.1389810707806385,0.08776906610098842,-0.01916787588246947,3.1116085810056884,0.06351648876371421,-0.03627213836994831,-2.477,-1.5549999999999997,-15.365,0
0.5329038070586961,-0.09307755010018394,-0.05896263132470094,0.5287626328319031,-0.09404139124369758,-0.03900666956200405,0.9992239729191643,-0.01785802424956631,-0.03189788848610383,0.014500096151685727,0.9989884442894572,-0.009734117756297801,-0.04381402748140986,-0.0016888956831384353,2.472,1.648,-15.543,-3.139061509512234,0.0876846127938356,-0.01937619589650847,3.111410443677989,0.06327058892901,-0.03669501899709001,-2.472,-1.6479999999999997,-15.543,0
0.5328166145232958,-0.09320560877213524,-0.059139133552484145,0.528792039779945,-0.09405062294079518,-0.039006745427147105,0.9992232005170701,-0.018189399352368057,-0.03169424799459913,0.014587702040722999,0.9989892809431956,-0.009802147407106008,-0.043780693143682436,-0.0016648163228876317,2.535,1.782,-15.714,-3.139115145825099,0.08761758523507902,-0.019514799087154228,3.1112219981570606,0.06284994200932852,-0.037357663499137994,-2.535,-1.7819999999999998,-15.714,0
0.5328978675750535,-0.09318301384339378,-0.05930910406487428,0.5288675578286923,-0.09407209204722043,-0.03901246379306078,0.999218489490955,-0.01814694533840972,-0.03186318303206195,0.014595249772956849,0.9989915667606887,-0.009931033461770237,-0.04370177828750352,-0.0016015356302161,2.544,1.903,-15.943,-3.139251848621435,0.0874586786345439,-0.019778939032494045,3.111202916474428,0.06318888691652294,-0.037278644828241655,-2.5530000000000004,-1.9029999999999998,-15.963,0
0.5330018485931199,-0.09318105332741783,-0.05943506346123659,0.5288952836206046,-0.09408235877691676,-0.03901575222591125,0.9992549236851587,-0.017842404993157996,-0.03110207355607191,0.014110005778202707,0.9989924911943465,-0.009974222880231908,-0.04367176921032343,-0.0015748687573758473,2.543,2.037,-16.137,-3.1393085313561393,0.08739817704223382,-0.019867927089171306,3.1122234266110134,0.061693414939350454,-0.03661374309690752,-2.5430000000000006,-2.0369999999999995,-16.137,0
0.5330671829131883,-0.09320090453515098,-0.059513838867120375,0.5289342872716601,-0.09408893332355474,-0.03902016007283807,0.9992532263814115,-0.01788206901298151,-0.03113385618000274,0.01410990199123771,0.9989938168210039,-0.01003771044504008,-0.04362799198890349,-0.0015436494510846512,2.541,2.038,-16.176,-3.1393758441301904,0.08731006373730728,-0.019998031471188123,3.1122199567817543,0.061755830393273946,-0.03669418999656813,-2.5410000000000004,-2.0379999999999994,-16.176,0
0.5330931495574754,-0.093200417088366,-0.05954535875695192,0.5289674717619605,-0.09409091823527828,-0.03901997627693354,0.9992713128878038,-0.017979095967248677,-0.03045454602594925,0.014188062517723126,0.9989947976868087,-0.01010853355886685,-0.043590036260637094,-0.0015187798013452096,2.535,2.057,-16.219,-3.139431168571898,0.08723373956156852,-0.02014228475795388,3.1120837619324,0.060391233434927284,-0.0368717280121055,-2.5350000000000006,-2.0569999999999995,-16.219,0
0.533142359152202,-0.09324167160878226,-0.05953275022881471,0.529006558460224,-0.09410208460526001,-0.03902339443388675,0.9992356200789304,-0.01836498394097475,-0.031159694595890818,0.01466838229873488,0.9989968221481615,-0.01014789708398115,-0.043535704551669115,-0.001482618393381083,2.538,2.079,-16.274,-3.1395060471853733,0.0871243317932153,-0.02022442377229995,3.1110705802313308,0.061772262023481704,-0.03769682699720601,-2.5380000000000003,-2.0789999999999997,-16.274,0
0.5332647479919237,-0.09321829454789206,-0.05953905878441774,0.529036745485063,-0.09410465768257369,-0.03902253790532417,0.9992426837975984,-0.018327750992485962,-0.030957367060105552,0.014662159734928775,0.9989978739147231,-0.010182362754117451,-0.04350415754953446,-0.0014635165173252577,2.544,2.086,-16.256,-3.139546734158295,0.08706086524166927,-0.020295233971219094,3.1110933565474252,0.061368909692953354,-0.03761520926667657,-2.5440000000000005,-2.0859999999999994,-16.256,0
0.5334305442718309,-0.09321519498715444,-0.05995567522423707,0.5290567817055452,-0.09410681128943955,-0.039025877369317036,0.9992500677812621,-0.01788354028606971,-0.030712319768681735,0.015212481744528846,0.9989981946576297,-0.010214396621702947,-0.04348975650042902,-0.001449293247950687,2.597,2.087,-16.44,-3.1395777672640754,0.08703181310934247,-0.02036073347448127,3.1100280193018106,0.060872054820301884,-0.03675100402740935,-2.5970000000000004,-2.0869999999999997,-16.44,0
0.5337048705962938,-0.09318893258461995,-0.06036367426293336,0.5291132065627184,-0.0941132354998841,-0.03902877729250703,0.9992259886657299,-0.017706029219854005,-0.031068750100674756,0.016243092754903786,0.9989991216430952,-0.010291399638426922,-0.04345139561601859,-0.0014157895839185908,2.615,2.103,-16.444,-3.139650903654813,0.0869544899601993,-0.02051811765737395,3.1079610614510167,0.06155306486088501,-0.03647109282453285,-2.6150000000000007,-2.1029999999999998,-16.444,0
0.5338896354583543,-0.09310086636433644,-0.06102512560265504,0.529148728451409,-0.09411635049032549,-0.03902768180124347,0.9992562694544302,-0.017823709822552488,-0.029863913372553272,0.01650924507637755,0.9990001951961616,-0.01030642488192399,-0.04342374767695906,-0.0013971154926687905,2.67,2.159,-16.584,-3.1396891012498447,0.08689878997206375,-0.020549887619889563,3.1074675708033155,0.05912934277419654,-0.03667928075680633,-2.6700000000000004,-2.1589999999999994,-16.584,0
0.53397912253416,-0.09307800071129842,-0.061606153587274184,0.5292197619432674,-0.09412589740272641,-0.03903491725067623,0.9992448491081957,-0.01836633358330327,-0.029490426675965718,0.01726004437869558,0.9990025761576211,-0.010324652983701913,-0.043366015371800744,-0.0013525050801806073,2.808,2.234,-17.022,-3.1397789758296475,0.08678233824698268,-0.02059034022672859,3.105946857465191,0.05833538686902909,-0.037796216441520064,-2.8080000000000003,-2.2339999999999995,-17.022,0
0.5339634841827195,-0.09307830076108022,-0.06234800253289186,0.52932876171361,-0.09411112457107615,-0.03904598086479358,0.9992592582953265,-0.018135545249961423,-0.02935318189247687,0.016900075119419735,0.9990075294956067,-0.010360383929582205,-0.043245290343184334,-0.0012843299837409108,2.874,2.11,-17.297,-3.1399163284828036,0.08653932950746215,-0.02066793030171856,3.106686593621061,0.058082545576646064,-0.03730791784842059,-2.8740000000000006,-2.1099999999999994,-17.297,0
0.5339463638213914,-0.0930997831095223,-0.06272595224755251,0.5294013223555404,-0.09410920093187752,-0.03905824612405476,0.9992716910373252,-0.018357811420458357,-0.02868071619892241,0.017078637158955336,0.999011148879179,-0.010366028531441066,-0.04316178459191776,-0.0012314228866843187,2.875,2.212,-17.877,-3.1400212021403484,0.08637108544411558,-0.02068382737762423,3.1063429058731113,0.05672301558067523,-0.037738175611614196,-2.8750000000000004,-2.2119999999999997,-17.877,0
0.5340278972533982,-0.09309822599778218,-0.06260978613274538,0.5295282125068419,-0.09410970892074845,-0.03908444151311974,0.9992818656592315,-0.018363646977388737,-0.028328182058313382,0.017065421536006195,0.9990181472462754,-0.010393651089903946,-0.04299569227128676,-0.001126994628160939,2.96,2.042,-18.446,-3.1402295865099425,0.08603648587956333,-0.02074820841253915,3.1063830712347125,0.05601820377229205,-0.037735918190782966,-2.9600000000000004,-2.0419999999999994,-18.446,0
0.5340252937225144,-0.09309827570805593,-0.06253379164116823,0.5296236773452025,-0.0941005079481836,-0.03909687976013018,0.9992856458091528,-0.018365829861666377,-0.02819609463886742,0.017060471759421325,0.9990237555537791,-0.010409418797982175,-0.04286315692097463,-0.0010563133252728394,2.999,2.208,-18.604,-3.140369943740863,0.08576973664359044,-0.020785859277349116,3.1063981148946627,0.05575412684282484,-0.037735073882774126,-2.9990000000000006,-2.2079999999999997,-18.604,0
0.5340431236175339,-0.09309793524632497,-0.06251974115746463,0.5297446003334987,-0.09411024098993362,-0.039104915837009535,0.999250012184392,-0.018672852204917663,-0.02894971089849095,0.017545284273758233,0.999031596841094,-0.01041300200671581,-0.04268144468881817,-0.000958311446128515,3.028,2.14,-19.072,-3.1405630078347673,0.08540396406131226,-0.020801341507908945,3.1053797134646652,0.05723199573233002,-0.03840586526051329,-3.0280000000000005,-2.1399999999999997,-19.072,0
0.5340528510955612,-0.09307658700833363,-0.06245970831292117,0.5298866267616124,-0.09413432596875053,-0.0391036921698282,0.9992750150757795,-0.018231806248283102,-0.028704879888921984,0.01697823479215247,0.9990402133447087,-0.010477157219131233,-0.0424659757431445,-0.0008416493947812651,3.006,2.262,-19.145,-3.1407979409014586,0.0849702810587293,-0.020939791576256875,3.1065501489597853,0.056779554645380655,-0.037481056410624464,-3.0060000000000002,-2.2619999999999996,-19.145,0
0.5341368965057175,-0.09307497553715748,-0.06241942797081912,0.5300263712339432,-0.09412359770947577,-0.03911127483249016,0.9992456320082576,-0.01854222722010112,-0.02923800944278356,0.017454986986699866,0.9990494545327627,-0.010454746256407757,-0.042255456308819994,-0.0007404496373063374,3.049,2.223,-19.302,-3.1409945599610203,0.08454675311257523,-0.020903223417918174,3.1055563919206337,0.05781680389866131,-0.03815016184053795,-3.0490000000000004,-2.2229999999999994,-19.302,0
0.534172533407573,-0.09307429211030048,-0.06239129553215945,0.5301629483071358,-0.0941226495666368,-0.03911868777233091,0.9992317049623874,-0.01844673420396037,-0.02981659749149571,0.01737450347281613,0.9990580844060338,-0.010464717982700007,-0.04205012993692994,-0.0006375004370422866,3.082,2.137,-19.466,-3.141197537757822,0.08413360804841855,-0.020931670020743847,3.105699855668834,0.058980563468021004,-0.03797636787399702,-3.0820000000000003,-2.1369999999999996,-19.466,0
0.5342822536376756,-0.0930721881855492,-0.06256509695427859,0.5302507275843817,-0.09413725622870778,-0.03911447143294844,0.9992454625544779,-0.01854213131796072,-0.029243733047429117,0.017455201307592726,0.999063668222174,-0.010471000971338683,-0.041916662199596035,-0.000569719720716661,3.002,2.168,-19.508,-3.1413311783543247,0.08386503370245282,-0.02094978956221561,3.105555737519947,0.057828247086132434,-0.03815020156101388,-3.0020000000000002,-2.1679999999999997,-19.508,0
0.5344427341369431,-0.09306911079773945,-0.06280303392785036,0.5303684194504258,-0.09414160413474665,-0.03911623974716169,0.9992411867305832,-0.018539696119624343,-0.029387778637290998,0.017460639192129167,0.9990714162100001,-0.01045641317189546,-0.041736362492307,-0.000480579356302249,2.993,2.135,-19.618,-3.141504906110631,0.08350226840020007,-0.020927732673865287,3.1055391805446084,0.05811623675720064,-0.03815116334605141,-2.9830000000000005,-2.1249999999999996,-19.609,0
0.5345186485198776,-0.09304645364174885,-0.06289906988518679,0.5304123666646982,-0.09414548905497801,-0.03911632889310104,0.9992367688349268,-0.01899951330116024,-0.028850829189379566,0.01810284286232397,0.9990740119638246,-0.010479969113814616,-0.041668630931783475,-0.0004474758762383421,2.999,2.087,-19.679,-3.1415718299623943,0.08336600216810919,-0.020977625620094368,3.104248622677063,0.05700058971132898,-0.03908800831445527,-2.9990000000000006,-2.0869999999999997,-19.679,0
0.5344423278716842,-0.09304792313466115,-0.06280303392785036,0.5304975513871691,-0.09415118168552197,-0.039121723527252544,0.9992378629793497,-0.019000166875296633,-0.028813376685392886,0.018101412458748054,0.9990789571691073,-0.010518064032287633,-0.041540972860244656,-0.0003760497069256568,2.99,2.09,-19.754,3.1414697737498853,0.08310897497452187,-0.021059750693375935,3.104252996511513,0.05692571417262368,-0.0390877504210837,-2.9900000000000007,-2.0899999999999994,-19.754,0
0.5344431404022018,-0.09309029846081776,-0.06280303392785036,0.5305365492530405,-0.09414586415743037,-0.0391200500926181,0.9992193780756351,-0.0189825493629341,-0.02950675701475632,0.018023139385276707,0.9990811236737988,-0.010540370078076322,-0.04148337847818999,-0.00035269497465965487,2.923,2.06,-19.827,3.1414223070810836,0.08299319743597941,-0.02110631668995736,3.104382101429907,0.05831624439589672,-0.039075422613662904,-2.9230000000000005,-2.0599999999999996,-19.827,0
0.5345466636565963,-0.09304591398129505,-0.0626424904860779,0.5305844050638201,-0.09414663728069263,-0.0391249079649727,0.9992348957296141,-0.01891063959547615,-0.029033197082456406,0.01800747932617178,0.9990833516180173,-0.010616454642209438,-0.041410594982350286,-0.0003101489640182047,2.941,2.031,-19.854,3.1413322197611264,0.08284659530883907,-0.021262281900337916,3.1044371516374203,0.05737237061249326,-0.038911797743291676,-2.9410000000000003,-2.0309999999999997,-19.854,0
0.5345251144317428,-0.09291911558995289,-0.06192717466729127,0.5306182552198421,-0.09415454595062807,-0.03912399921192608,0.9992021744520365,-0.018799685082588294,-0.030027897117229495,0.018305649512859522,0.9990851499478349,-0.010650621713309208,-0.041358607915888065,-0.0002812778394354438,2.936,2.051,-19.824,3.141272606816444,0.08274191285095576,-0.021333086275388997,3.1038056527308275,0.059354443613018136,-0.03874664169294933,-2.9360000000000004,-2.0509999999999997,-19.824,0
0.534646799459819,-0.09291671376118701,-0.06052144537346803,0.5306386676375545,-0.09414957574032125,-0.039122636140486,0.9991965694392402,-0.018890255834014262,-0.030708287175795223,0.01736548115902823,0.9990859033859796,-0.010699568027286629,-0.04132785102187189,-0.0002679168850143058,2.911,2.022,-19.743,3.1412424174405795,0.0826800477446382,-0.021432279552369524,3.105655061988364,0.06074851093911173,-0.038898229557653596,-2.9110000000000005,-2.0219999999999994,-19.743,0
0.5348483413604538,-0.09289150779137653,-0.05983334932702027,0.5306816176360445,-0.0941571870653667,-0.03911512101322287,0.9992107903556967,-0.01867873160347748,-0.030492898223979503,0.017154288107276247,0.9990878278759718,-0.010739484419662985,-0.04127110845910966,-0.0002396184402527936,2.885,1.979,-19.466,3.1411835950061198,0.08256584920480949,-0.02151454408820926,3.1060996569210872,0.060333422021869414,-0.03845357414884609,-2.8850000000000002,-1.9789999999999996,-19.466,0
0.5348316158202927,-0.09287061159501117,-0.05974131880181276,0.5307128916768704,-0.09415515189246236,-0.03910631592989633,0.9991786335740159,-0.018944663583934093,-0.031101205419271895,0.017636834299635175,0.9990888337774754,-0.010754351123379267,-0.04124292210324923,-0.00023167626847656373,2.841,1.806,-18.753,3.141167050202067,0.08250925452145694,-0.021544950722493312,3.1050920586501456,0.06152187418179748,-0.03903901382668403,-2.841,-1.8059999999999996,-18.753,0
